Wavelength (nm)	Reflectance (%)
377.35	0.0000
377.48	0.0000
377.62	0.0000
377.75	68.0851
377.88	0.0000
378.02	200.0000
378.15	200.0000
378.28	200.0000
378.41	200.0000
378.55	69.8824
378.68	0.0000
378.81	86.8571
378.95	200.0000
379.08	200.0000
379.21	200.0000
379.35	77.2903
379.48	200.0000
379.61	200.0000
379.74	168.9170
379.88	84.0488
380.01	110.7938
380.14	131.9271
380.28	78.3229
380.41	69.3305
380.54	149.3948
380.68	136.6932
380.81	86.0528
380.94	70.7708
381.07	98.9872
381.21	106.2137
381.34	55.8199
381.47	81.8175
381.61	140.6536
381.74	120.7246
381.87	45.0123
382.00	110.1561
382.14	136.7616
382.27	76.6777
382.40	57.8071
382.54	109.1904
382.67	119.0016
382.80	83.7937
382.93	108.3088
383.07	114.4377
383.20	103.3575
383.33	128.5363
383.47	89.7267
383.60	89.4074
383.73	118.3642
383.86	122.0896
384.00	80.9983
384.13	114.0802
384.26	125.2986
384.40	96.9863
384.53	80.5698
384.66	96.1346
384.79	113.5533
384.93	99.1610
385.06	76.0488
385.19	77.7844
385.33	84.2468
385.46	60.7344
385.59	75.8695
385.72	117.2125
385.86	112.3492
385.99	105.6865
386.12	109.1275
386.25	79.9561
386.39	85.4468
386.52	101.1504
386.65	98.4123
386.79	80.0747
386.92	116.9231
387.05	126.7894
387.18	99.8489
387.32	89.1237
387.45	129.8827
387.58	120.2493
387.71	101.1348
387.85	107.5425
387.98	107.3659
388.11	107.3342
388.25	95.9301
388.38	84.0619
388.51	95.5387
388.64	116.5654
388.78	117.5241
388.91	90.4920
389.04	113.4069
389.17	104.4895
389.31	70.9894
389.44	62.3791
389.57	95.3366
389.70	93.2137
389.84	102.5502
389.97	109.7485
390.10	117.4675
390.24	121.9765
390.37	99.6556
390.50	96.8843
390.63	101.9231
390.77	93.3559
390.90	94.8241
391.03	111.9772
391.16	102.3191
391.30	102.9824
391.43	116.8956
391.56	94.5714
391.69	98.0064
391.83	117.0515
391.96	95.8499
392.09	86.2299
392.22	114.4025
392.36	118.6624
392.49	88.8017
392.62	91.9345
392.75	99.2859
392.89	94.9150
393.02	98.3414
393.15	86.9969
393.28	108.5053
393.42	99.9884
393.55	99.0066
393.68	86.7374
393.81	109.3121
393.95	107.6121
394.08	103.1262
394.21	93.9832
394.34	92.1833
394.48	94.3200
394.61	85.2933
394.74	92.9797
394.87	93.6106
395.01	116.3037
395.14	104.1766
395.27	96.2196
395.40	103.3521
395.54	108.6829
395.67	84.7826
395.80	96.0412
395.93	109.4801
396.07	107.9002
396.20	102.0873
396.33	103.4325
396.46	105.7698
396.59	113.3426
396.73	95.9066
396.86	96.7231
396.99	114.3235
397.12	131.7724
397.26	82.6179
397.39	85.4241
397.52	102.3880
397.65	96.2492
397.79	67.6908
397.92	112.7842
398.05	127.3691
398.18	105.9009
398.32	95.9161
398.45	103.4017
398.58	105.1955
398.71	97.8354
398.84	95.0338
398.98	93.3123
399.11	98.4353
399.24	97.3085
399.37	98.5837
399.51	104.8821
399.64	107.3951
399.77	104.1254
399.90	107.4625
400.03	96.8190
400.17	90.3520
400.30	94.2329
400.43	93.1338
400.56	86.5589
400.70	102.6305
400.83	108.4302
400.96	105.9614
401.09	101.2130
401.23	102.9383
401.36	95.8112
401.49	97.0142
401.62	100.2003
401.75	106.5395
401.89	101.4886
402.02	99.8845
402.15	99.4482
402.28	101.5300
402.41	106.0764
402.55	95.8070
402.68	92.5161
402.81	99.3224
402.94	102.8599
403.08	91.3514
403.21	95.3673
403.34	106.0645
403.47	96.9682
403.60	85.8352
403.74	97.9438
403.87	104.9255
404.00	105.0766
404.13	112.9800
404.26	112.1237
404.40	105.8978
404.53	110.6641
404.66	97.9831
404.79	91.9615
404.93	105.8262
405.06	104.5247
405.19	96.7769
405.32	99.9236
405.45	108.4047
405.59	109.2408
405.72	85.1728
405.85	94.3349
405.98	106.3754
406.11	99.4312
406.25	82.7979
406.38	105.0253
406.51	102.7550
406.64	97.0339
406.77	92.5126
406.91	101.3690
407.04	103.1661
407.17	101.0120
407.30	90.7573
407.43	91.1404
407.57	96.7033
407.70	99.3756
407.83	101.9954
407.96	100.0751
408.09	109.7163
408.23	111.1788
408.36	92.9369
408.49	88.1619
408.62	105.8252
408.75	99.6887
408.89	93.6465
409.02	101.8417
409.15	102.6099
409.28	105.5891
409.41	93.5669
409.55	92.7028
409.68	106.2309
409.81	103.7003
409.94	93.4446
410.07	109.8927
410.20	111.1061
410.34	103.8929
410.47	101.3176
410.60	105.2875
410.73	99.0000
410.86	99.7960
411.00	100.1343
411.13	102.5797
411.26	95.6802
411.39	97.8524
411.52	96.2817
411.66	99.4918
411.79	98.8151
411.92	104.1990
412.05	103.9613
412.18	99.3421
412.31	93.2215
412.45	103.0335
412.58	103.0558
412.71	95.2092
412.84	103.3781
412.97	110.4871
413.11	102.3546
413.24	91.8933
413.37	103.2778
413.50	104.9285
413.63	98.0772
413.76	97.2213
413.90	108.3016
414.03	104.5549
414.16	99.4781
414.29	91.3925
414.42	95.8455
414.56	93.0297
414.69	92.4253
414.82	89.9092
414.95	99.0547
415.08	92.4752
415.21	101.4619
415.35	99.0098
415.48	95.9600
415.61	106.9937
415.74	112.1788
415.87	91.5066
416.00	96.8995
416.14	108.7902
416.27	100.8901
416.40	97.2693
416.53	109.6382
416.66	112.8707
416.79	102.8261
416.93	100.4593
417.06	102.8393
417.19	104.0752
417.32	104.4118
417.45	100.1657
417.58	100.9445
417.72	100.4198
417.85	93.8975
417.98	92.3337
418.11	100.6346
418.24	100.5277
418.37	101.7870
418.51	99.6545
418.64	95.7985
418.77	100.2262
418.90	100.0823
419.03	92.6968
419.16	103.5387
419.29	110.6384
419.43	93.4554
419.56	91.7557
419.69	102.6621
419.82	100.1347
419.95	94.2563
420.08	98.5924
420.22	98.2970
420.35	94.6046
420.48	99.6476
420.61	94.2365
420.74	104.2042
420.87	109.4662
421.00	105.5025
421.14	94.0453
421.27	98.7477
421.40	97.7926
421.53	96.5309
421.66	100.1526
421.79	105.1818
421.93	110.0762
422.06	105.8870
422.19	103.2850
422.32	103.9817
422.45	108.1686
422.58	100.8113
422.71	98.2360
422.85	102.6667
422.98	103.9500
423.11	100.9206
423.24	102.8345
423.37	104.8647
423.50	102.4353
423.63	101.6533
423.77	99.8446
423.90	96.6003
424.03	98.5256
424.16	101.7306
424.29	101.8352
424.42	104.5094
424.55	105.7299
424.69	105.0550
424.82	105.6696
424.95	100.4825
425.08	99.2486
425.21	101.6067
425.34	100.8098
425.47	99.7570
425.60	103.6897
425.74	103.4959
425.87	101.7174
426.00	104.0648
426.13	102.8467
426.26	102.9041
426.39	98.1825
426.52	100.5125
426.66	104.8366
426.79	96.3148
426.92	92.2082
427.05	98.9108
427.18	99.7949
427.31	96.0495
427.44	100.9131
427.57	106.9135
427.71	104.6564
427.84	98.0465
427.97	95.0520
428.10	100.4480
428.23	105.3796
428.36	97.7609
428.49	96.6128
428.62	100.1291
428.76	102.0018
428.89	94.5361
429.02	95.2545
429.15	102.0526
429.28	101.2248
429.41	96.9113
429.54	94.0153
429.67	101.3856
429.81	103.6879
429.94	99.4579
430.07	93.4245
430.20	98.2779
430.33	98.6900
430.46	95.5964
430.59	100.9580
430.72	104.6722
430.85	104.7785
430.99	100.4240
431.12	96.3904
431.25	97.0793
431.38	101.0324
431.51	94.7334
431.64	95.5860
431.77	101.3772
431.90	102.1775
432.03	98.6978
432.17	100.9918
432.30	104.3003
432.43	101.8370
432.56	98.3672
432.69	96.1459
432.82	98.6545
432.95	97.9616
433.08	99.1084
433.21	99.2549
433.35	103.7062
433.48	102.4703
433.61	103.7232
433.74	101.0381
433.87	103.9005
434.00	102.5380
434.13	102.0646
434.26	98.9626
434.39	102.1861
434.53	100.1302
434.66	101.6970
434.79	97.4377
434.92	101.4419
435.05	101.3791
435.18	96.4644
435.31	94.3371
435.44	100.1292
435.57	101.5216
435.70	98.7601
435.84	96.1208
435.97	98.0607
436.10	98.8294
436.23	94.4591
436.36	94.4317
436.49	101.0520
436.62	98.4839
436.75	96.6686
436.88	97.5406
437.01	101.8615
437.14	102.1752
437.28	98.8360
437.41	96.1283
437.54	98.9802
437.67	100.9847
437.80	92.8798
437.93	94.4030
438.06	101.6896
438.19	101.5205
438.32	96.2663
438.45	99.9517
438.58	101.5045
438.72	99.3355
438.85	96.5584
438.98	95.5757
439.11	97.9037
439.24	98.3591
439.37	94.1510
439.50	96.0389
439.63	99.4454
439.76	101.3206
439.89	101.4249
440.02	100.6900
440.15	100.5857
440.29	102.0273
440.42	99.3693
440.55	95.7031
440.68	101.6264
440.81	102.8806
440.94	96.4657
441.07	97.6281
441.20	103.1508
441.33	100.2003
441.46	97.5596
441.59	101.5197
441.72	102.3493
441.85	100.1571
441.99	96.9277
442.12	96.1392
442.25	95.9907
442.38	98.0468
442.51	97.8856
442.64	100.1788
442.77	102.2048
442.90	103.3116
443.03	101.2152
443.16	98.5790
443.29	100.1346
443.42	98.2194
443.55	97.7268
443.68	97.7418
443.82	101.6578
443.95	99.2532
444.08	100.4861
444.21	99.2988
444.34	99.1613
444.47	98.3125
444.60	100.7047
444.73	98.0706
444.86	98.6133
444.99	99.6388
445.12	101.4461
445.25	99.6245
445.38	101.3315
445.51	103.3365
445.64	106.7129
445.78	99.9875
445.91	98.5699
446.04	102.5850
446.17	99.2436
446.30	94.0626
446.43	100.7321
446.56	103.4076
446.69	97.7821
446.82	96.5192
446.95	98.2733
447.08	98.4670
447.21	96.5701
447.34	97.4764
447.47	100.1790
447.60	98.0280
447.73	97.4501
447.86	99.4394
447.99	100.0720
448.13	101.4607
448.26	101.8830
448.39	99.6717
448.52	100.1180
448.65	100.5179
448.78	97.5012
448.91	99.9815
449.04	100.1149
449.17	99.0207
449.30	100.4077
449.43	99.5161
449.56	98.4746
449.69	102.7691
449.82	101.5838
449.95	99.1955
450.08	102.0232
450.21	102.6217
450.34	98.7609
450.47	100.8138
450.60	103.2381
450.73	104.3157
450.87	102.9715
451.00	98.1465
451.13	99.0985
451.26	97.5060
451.39	95.7827
451.52	95.9942
451.65	101.7256
451.78	102.4377
451.91	100.1196
452.04	98.0633
452.17	100.7146
452.30	101.4032
452.43	97.4756
452.56	102.2325
452.69	101.9610
452.82	99.9722
452.95	100.9928
453.08	100.1938
453.21	99.2587
453.34	101.3129
453.47	97.9280
453.60	95.6344
453.73	98.2208
453.86	96.6012
453.99	97.3584
454.12	99.9467
454.25	101.6284
454.38	100.9610
454.52	101.6104
454.65	102.0743
454.78	101.5695
454.91	100.5183
455.04	101.7301
455.17	98.5817
455.30	98.3312
455.43	100.9068
455.56	99.4405
455.69	97.4579
455.82	101.4328
455.95	101.1524
456.08	100.1512
456.21	101.9273
456.34	102.3287
456.47	101.6995
456.60	101.6786
456.73	99.5939
456.86	99.3886
456.99	100.4715
457.12	98.2449
457.25	96.9797
457.38	97.7084
457.51	97.4606
457.64	96.9138
457.77	98.4863
457.90	99.0468
458.03	99.3110
458.16	98.5918
458.29	99.3815
458.42	100.1211
458.55	101.1489
458.68	99.5308
458.81	96.4026
458.94	98.0178
459.07	99.4240
459.20	98.2809
459.33	97.4055
459.46	100.5761
459.59	100.5691
459.72	97.0865
459.85	96.4901
459.98	99.4127
460.11	101.0885
460.24	97.3124
460.37	98.3486
460.50	100.0782
460.63	100.0344
460.76	97.3562
460.89	98.5769
461.02	100.3096
461.15	100.2362
461.28	97.6254
461.41	100.0202
461.54	100.9551
461.67	98.8739
461.80	98.5001
461.93	99.3556
462.06	98.6515
462.19	99.3048
462.32	98.4425
462.45	98.5203
462.58	99.3960
462.71	100.1425
462.84	98.6111
462.97	99.3720
463.10	98.2607
463.23	98.3748
463.36	98.7262
463.49	98.5932
463.62	99.0523
463.75	99.9512
463.88	101.8413
464.01	97.7749
464.14	98.9516
464.27	100.2053
464.40	99.2736
464.53	97.4995
464.66	99.1985
464.79	99.5203
464.92	98.6154
465.05	99.0445
465.18	99.1923
465.31	100.7439
465.44	100.4431
465.57	97.5029
465.70	98.0674
465.83	99.7372
465.96	97.9725
466.09	96.8657
466.22	100.4072
466.35	100.7700
466.48	99.4250
466.61	99.7696
466.74	99.4518
466.87	98.3900
467.00	96.8686
467.13	97.6981
467.26	99.3943
467.39	100.3504
467.52	98.9744
467.65	100.1559
467.78	99.1227
467.91	97.8941
468.04	97.8869
468.17	100.4251
468.30	100.6690
468.43	100.2644
468.56	99.5820
468.69	100.7019
468.82	99.9850
468.95	99.7979
469.08	100.8152
469.21	100.2215
469.34	98.1671
469.47	99.2593
469.60	99.2016
469.73	97.9552
469.86	100.7836
469.99	101.9568
470.11	99.7679
470.24	99.4160
470.37	100.7581
470.50	100.1605
470.63	99.1024
470.76	98.5420
470.89	99.9794
471.02	100.2579
471.15	97.7487
471.28	97.2364
471.41	99.3484
471.54	99.5410
471.67	97.3869
471.80	98.4534
471.93	100.1182
472.06	100.8805
472.19	97.7980
472.32	98.3007
472.45	99.2954
472.58	98.8947
472.71	97.9669
472.84	100.2724
472.97	100.0060
473.10	100.6178
473.23	99.5556
473.36	98.9655
473.49	98.4419
473.62	98.7732
473.74	98.2413
473.87	99.9305
474.00	99.8915
474.13	99.2870
474.26	99.9946
474.39	99.7375
474.52	98.4004
474.65	99.8543
474.78	100.8844
474.91	99.1118
475.04	98.9901
475.17	99.8803
475.30	98.2514
475.43	97.7986
475.56	99.1936
475.69	99.9043
475.82	98.7971
475.95	99.7306
476.08	99.9339
476.21	100.0026
476.34	98.5511
476.46	99.8490
476.59	99.6064
476.72	99.9798
476.85	98.8896
476.98	99.0739
477.11	99.4951
477.24	99.0726
477.37	97.9113
477.50	99.0586
477.63	99.6457
477.76	98.9410
477.89	98.5936
478.02	98.7523
478.15	98.7446
478.28	99.2132
478.41	98.1123
478.54	98.8568
478.66	99.2727
478.79	99.2878
478.92	98.6185
479.05	99.6128
479.18	98.9338
479.31	99.1171
479.44	98.8918
479.57	98.8437
479.70	99.4937
479.83	100.3052
479.96	98.5941
480.09	98.1920
480.22	98.6038
480.35	98.0580
480.48	97.9578
480.60	98.7611
480.73	99.3809
480.86	99.4033
480.99	99.0857
481.12	98.0002
481.25	99.2571
481.38	99.3953
481.51	98.7738
481.64	99.0807
481.77	100.3106
481.90	100.0237
482.03	99.2066
482.16	99.8194
482.29	99.7977
482.41	99.9583
482.54	99.8670
482.67	100.1917
482.80	100.5903
482.93	100.0730
483.06	99.4374
483.19	99.6606
483.32	100.1119
483.45	99.3167
483.58	99.1373
483.71	98.9459
483.84	98.4869
483.97	98.1711
484.09	98.2319
484.22	98.9416
484.35	99.0990
484.48	98.9028
484.61	98.9494
484.74	99.2743
484.87	98.9445
485.00	99.2231
485.13	99.2261
485.26	99.6594
485.39	98.7630
485.52	98.5248
485.64	98.0675
485.77	98.7260
485.90	98.4175
486.03	99.4606
486.16	99.5873
486.29	99.6398
486.42	99.4728
486.55	98.9945
486.68	98.4281
486.81	98.9537
486.94	98.8793
487.06	98.2108
487.19	98.6207
487.32	99.0487
487.45	98.6381
487.58	99.2618
487.71	99.4748
487.84	99.0028
487.97	98.6806
488.10	99.1648
488.23	98.4396
488.35	98.8738
488.48	99.5022
488.61	99.7884
488.74	99.4810
488.87	99.1961
489.00	99.1110
489.13	99.2789
489.26	99.2002
489.39	99.0981
489.52	99.7557
489.64	99.5326
489.77	99.1829
489.90	98.8141
490.03	98.9040
490.16	99.0047
490.29	98.4811
490.42	98.7077
490.55	98.8284
490.68	99.3843
490.81	98.7403
490.93	99.3528
491.06	99.3314
491.19	99.1289
491.32	98.8220
491.45	99.1476
491.58	99.1864
491.71	99.3910
491.84	99.0711
491.97	98.7513
492.09	99.2412
492.22	98.9727
492.35	98.7929
492.48	99.6854
492.61	99.5584
492.74	99.2637
492.87	99.5822
493.00	99.0731
493.12	98.6380
493.25	98.9890
493.38	99.2983
493.51	98.8673
493.64	99.0490
493.77	99.1817
493.90	98.6209
494.03	98.1278
494.16	98.6441
494.28	99.1727
494.41	98.5634
494.54	98.7435
494.67	99.4867
494.80	99.1885
494.93	98.8681
495.06	99.6500
495.19	100.1851
495.31	99.9109
495.44	99.7925
495.57	99.9423
495.70	100.1371
495.83	99.9901
495.96	99.1604
496.09	98.8675
496.22	99.2855
496.34	99.0027
496.47	98.3827
496.60	98.5550
496.73	99.2282
496.86	98.3893
496.99	98.5030
497.12	98.8556
497.24	99.0350
497.37	99.0351
497.50	99.5931
497.63	98.9778
497.76	98.6882
497.89	99.5328
498.02	99.3625
498.15	98.8427
498.27	98.9492
498.40	99.2728
498.53	98.6021
498.66	99.0455
498.79	99.1866
498.92	99.3704
499.05	99.5631
499.17	99.0352
499.30	98.6349
499.43	99.2364
499.56	99.2068
499.69	99.0687
499.82	99.8346
499.95	100.0808
500.07	99.7169
500.20	99.0639
500.33	99.1562
500.46	99.3383
500.59	99.0528
500.72	98.7256
500.85	99.2730
500.97	99.7016
501.10	99.4938
501.23	98.9257
501.36	98.8923
501.49	99.2142
501.62	98.2160
501.75	98.3621
501.87	98.7429
502.00	98.7643
502.13	98.8215
502.26	99.2201
502.39	99.2232
502.52	99.2719
502.64	98.9903
502.77	98.8061
502.90	99.1635
503.03	98.9962
503.16	98.6540
503.29	99.1255
503.42	99.4166
503.54	99.4151
503.67	98.8084
503.80	99.7189
503.93	99.7806
504.06	99.0409
504.19	98.7769
504.31	99.0099
504.44	98.4400
504.57	98.7025
504.70	99.0150
504.83	99.0825
504.96	99.3221
505.08	98.7712
505.21	98.3065
505.34	98.4887
505.47	98.4709
505.60	98.5467
505.73	98.5613
505.85	98.9887
505.98	99.3929
506.11	99.4201
506.24	99.2585
506.37	99.5033
506.50	99.4298
506.62	99.1005
506.75	98.7713
506.88	99.1396
507.01	99.3939
507.14	99.2270
507.27	99.1119
507.39	99.4816
507.52	98.7937
507.65	99.0613
507.78	98.7847
507.91	98.6628
508.04	98.4725
508.16	98.8801
508.29	99.2145
508.42	99.7495
508.55	99.3937
508.68	99.6584
508.81	99.8289
508.93	99.3143
509.06	98.9947
509.19	99.6431
509.32	99.2415
509.45	99.1875
509.57	99.1802
509.70	99.2782
509.83	99.0512
509.96	99.2827
510.09	99.2065
510.22	99.4069
510.34	98.9430
510.47	99.0542
510.60	98.9626
510.73	98.8021
510.86	98.7201
510.98	98.9135
511.11	98.7842
511.24	99.0509
511.37	99.3102
511.50	99.3019
511.63	99.5822
511.75	99.5844
511.88	99.3974
512.01	99.1715
512.14	99.1087
512.27	99.0234
512.39	98.9612
512.52	98.9998
512.65	99.1425
512.78	99.0370
512.91	98.9255
513.03	98.8448
513.16	98.9019
513.29	98.7125
513.42	98.5115
513.55	98.8775
513.67	99.2855
513.80	99.0328
513.93	98.8905
514.06	99.2250
514.19	98.7871
514.31	98.7927
514.44	98.7928
514.57	98.6833
514.70	98.9496
514.83	99.3620
514.95	99.2137
515.08	99.4117
515.21	99.7855
515.34	99.7832
515.47	99.5319
515.59	99.4338
515.72	98.9726
515.85	99.0709
515.98	98.7123
516.11	98.5971
516.23	98.8401
516.36	99.4784
516.49	99.1723
516.62	99.0055
516.75	99.5996
516.87	99.4533
517.00	98.7227
517.13	98.8851
517.26	99.6398
517.39	99.1101
517.51	98.5852
517.64	99.2735
517.77	99.1355
517.90	98.6816
518.02	99.0033
518.15	99.2293
518.28	98.8768
518.41	98.8268
518.54	98.7917
518.66	98.7720
518.79	98.9948
518.92	98.9822
519.05	98.8104
519.18	98.8385
519.30	98.6235
519.43	98.6375
519.56	98.4957
519.69	98.9724
519.81	99.1551
519.94	99.0867
520.07	98.9981
520.20	99.1743
520.33	99.1105
520.45	98.9142
520.58	98.8409
520.71	98.9012
520.84	99.1489
520.96	99.2279
521.09	99.0010
521.22	98.9527
521.35	99.2216
521.48	99.2346
521.60	98.9638
521.73	98.6190
521.86	98.9271
521.99	98.8751
522.11	98.5037
522.24	98.7443
522.37	98.8405
522.50	99.1076
522.62	98.9141
522.75	99.2119
522.88	99.0426
523.01	99.3286
523.14	98.7421
523.26	99.1056
523.39	98.7472
523.52	98.8448
523.65	99.1038
523.77	99.3101
523.90	98.9370
524.03	99.2510
524.16	99.3796
524.28	99.2663
524.41	99.6495
524.54	99.8059
524.67	99.4933
524.79	98.9884
524.92	99.1433
525.05	98.6117
525.18	98.7640
525.31	98.4167
525.43	99.0283
525.56	99.4178
525.69	99.4164
525.82	98.9736
525.94	99.6168
526.07	99.5176
526.20	98.7758
526.33	98.8588
526.45	99.0758
526.58	99.1399
526.71	98.7803
526.84	99.1341
526.96	99.0843
527.09	99.1385
527.22	99.3040
527.35	99.1595
527.47	99.2764
527.60	99.3217
527.73	99.1115
527.86	98.9001
527.98	99.3990
528.11	98.9263
528.24	99.1653
528.37	99.1933
528.49	98.7748
528.62	99.0010
528.75	99.3048
528.88	99.0938
529.00	99.3590
529.13	99.7884
529.26	99.0415
529.39	98.7808
529.51	99.1505
529.64	99.1163
529.77	98.8935
529.90	99.2738
530.02	99.7006
530.15	99.4932
530.28	99.3742
530.40	99.4510
530.53	99.6048
530.66	99.1382
530.79	99.1241
530.91	99.0884
531.04	99.2076
531.17	99.0051
531.30	99.2386
531.42	98.6914
531.55	98.9032
531.68	98.9768
531.81	98.9364
531.93	99.1419
532.06	99.5248
532.19	99.2011
532.31	98.9662
532.44	99.2298
532.57	99.0064
532.70	98.8734
532.82	98.7556
532.95	98.6162
533.08	98.5479
533.21	98.7330
533.33	98.9623
533.46	98.7290
533.59	99.1633
533.71	99.3060
533.84	99.3015
533.97	99.3130
534.10	99.7773
534.22	99.7069
534.35	99.2686
534.48	99.2139
534.61	99.2779
534.73	99.0955
534.86	98.7602
534.99	98.9907
535.11	99.0059
535.24	99.0755
535.37	99.4182
535.50	99.4955
535.62	99.3275
535.75	99.2709
535.88	99.0331
536.00	98.7142
536.13	98.8096
536.26	99.0577
536.39	98.7720
536.51	98.8909
536.64	99.1266
536.77	99.0218
536.89	98.7209
537.02	98.9516
537.15	98.8223
537.28	98.9024
537.40	98.8072
537.53	98.9332
537.66	99.1265
537.78	99.4140
537.91	99.3698
538.04	99.9888
538.17	99.8521
538.29	99.3633
538.42	99.1355
538.55	99.1902
538.67	98.7643
538.80	99.2042
538.93	99.2635
539.05	99.1656
539.18	98.9708
539.31	99.2885
539.44	98.9537
539.56	99.1902
539.69	99.5458
539.82	99.6993
539.94	98.9836
540.07	98.9926
540.20	98.9418
540.32	98.5413
540.45	98.1071
540.58	98.7594
540.71	99.0612
540.83	99.2106
540.96	99.0893
541.09	99.1721
541.21	99.2380
541.34	99.1512
541.47	98.9515
541.59	98.8603
541.72	99.1444
541.85	99.2617
541.98	99.2006
542.10	98.8536
542.23	99.2127
542.36	99.2279
542.48	99.0152
542.61	98.8665
542.74	99.3743
542.86	99.5586
542.99	99.4254
543.12	99.3971
543.24	99.3214
543.37	99.2248
543.50	98.9713
543.62	99.2084
543.75	99.2641
543.88	99.2951
544.01	99.1659
544.13	99.2989
544.26	99.1591
544.39	98.8991
544.51	98.8517
544.64	99.0867
544.77	98.8803
544.89	98.9726
545.02	98.8700
545.15	98.6603
545.27	98.5980
545.40	98.6118
545.53	98.6428
545.65	99.0544
545.78	99.4076
545.91	99.2682
546.03	99.5481
546.16	99.4629
546.29	99.1809
546.41	99.3031
546.54	99.2126
546.67	98.8520
546.79	99.1131
546.92	99.1508
547.05	99.0954
547.17	99.2750
547.30	99.6700
547.43	99.3677
547.56	99.5036
547.68	99.4434
547.81	99.4258
547.94	99.3156
548.06	99.0969
548.19	99.1252
548.32	99.3354
548.44	99.2745
548.57	98.9945
548.70	99.1891
548.82	99.1622
548.95	99.1651
549.08	98.9126
549.20	99.1553
549.33	99.3274
549.45	99.5527
549.58	99.2587
549.71	99.8290
549.83	99.7303
549.96	99.4787
550.09	99.0535
550.21	99.3031
550.34	99.0696
550.47	99.4603
550.59	99.5361
550.72	99.2894
550.85	99.2712
550.97	99.4439
551.10	98.9224
551.23	98.8797
551.35	99.3867
551.48	99.5037
551.61	99.1682
551.73	99.2963
551.86	99.4461
551.99	99.0716
552.11	98.7183
552.24	98.9929
552.37	99.0969
552.49	99.0296
552.62	99.3037
552.75	99.5720
552.87	99.5004
553.00	99.5712
553.12	99.5202
553.25	99.3543
553.38	99.2461
553.50	99.4542
553.63	99.2878
553.76	99.3442
553.88	99.5262
554.01	99.3694
554.14	98.9287
554.26	99.1843
554.39	99.2243
554.52	99.2875
554.64	99.3722
554.77	99.5424
554.89	99.3763
555.02	99.3363
555.15	99.1946
555.27	98.9539
555.40	99.1043
555.53	99.2763
555.65	99.1227
555.78	99.0018
555.91	99.4612
556.03	99.5492
556.16	99.2630
556.29	99.1262
556.41	99.4300
556.54	99.3904
556.66	98.8606
556.79	98.9449
556.92	99.4602
557.04	99.2167
557.17	98.9710
557.30	99.2440
557.42	99.0636
557.55	98.8041
557.67	98.7761
557.80	98.7865
557.93	99.1304
558.05	99.3031
558.18	99.2030
558.31	99.1213
558.43	99.2154
558.56	99.0878
558.68	99.0501
558.81	98.8232
558.94	99.0692
559.06	99.0313
559.19	98.8520
559.32	98.7594
559.44	99.0627
559.57	99.0201
559.69	98.9209
559.82	98.9914
559.95	99.3467
560.07	99.4024
560.20	99.2013
560.33	99.4606
560.45	99.1255
560.58	99.0338
560.70	99.0231
560.83	99.1068
560.96	98.7610
561.08	99.1774
561.21	99.3159
561.33	99.0024
561.46	99.1764
561.59	99.4706
561.71	99.4644
561.84	99.2123
561.97	99.7265
562.09	99.7338
562.22	99.5547
562.34	99.4927
562.47	99.5467
562.60	99.3964
562.72	99.1969
562.85	99.2963
562.97	99.2702
563.10	99.2886
563.23	99.1201
563.35	99.0827
563.48	98.8850
563.60	99.0210
563.73	99.0214
563.86	99.0849
563.98	99.2968
564.11	99.2214
564.23	99.0977
564.36	98.9486
564.49	99.0931
564.61	99.0915
564.74	99.1342
564.86	99.0577
564.99	98.9908
565.12	98.9518
565.24	98.8830
565.37	98.9857
565.49	99.0941
565.62	99.5173
565.75	98.9953
565.87	98.9172
566.00	99.2441
566.12	98.9813
566.25	98.8159
566.38	99.1124
566.50	99.1173
566.63	98.9521
566.75	99.2071
566.88	99.0756
567.01	99.2103
567.13	99.3924
567.26	99.1313
567.38	99.1173
567.51	99.0220
567.64	98.9030
567.76	98.7891
567.89	98.9923
568.01	98.8266
568.14	98.9003
568.26	99.0655
568.39	99.0363
568.52	99.0716
568.64	99.2245
568.77	99.2429
568.89	99.3349
569.02	99.3829
569.15	99.1658
569.27	98.8963
569.40	98.8451
569.52	98.7408
569.65	98.8101
569.77	99.0876
569.90	99.0754
570.03	99.3033
570.15	99.3407
570.28	99.5214
570.40	99.3977
570.53	99.5244
570.66	99.3948
570.78	99.4111
570.91	99.0724
571.03	99.0171
571.16	99.1473
571.28	99.0833
571.41	99.1324
571.54	99.1132
571.66	99.1072
571.79	99.1059
571.91	99.0002
572.04	98.5841
572.16	98.6369
572.29	98.6288
572.42	98.6231
572.54	98.5797
572.67	98.9166
572.79	98.9649
572.92	99.0381
573.04	99.2068
573.17	99.5531
573.29	99.2083
573.42	99.0766
573.55	99.0790
573.67	99.0049
573.80	98.9560
573.92	99.0469
574.05	99.0586
574.17	99.0719
574.30	99.1366
574.43	98.9546
574.55	99.2368
574.68	99.4030
574.80	99.5056
574.93	99.4218
575.05	99.4763
575.18	99.2606
575.30	99.0169
575.43	99.0198
575.56	99.0039
575.68	99.1364
575.81	99.1352
575.93	99.2999
576.06	99.3716
576.18	99.3965
576.31	98.9561
576.43	98.9710
576.56	98.9824
576.69	98.9352
576.81	98.9234
576.94	99.2382
577.06	99.4076
577.19	99.3718
577.31	99.0511
577.44	99.0557
577.56	98.9265
577.69	98.9627
577.82	99.2835
577.94	99.2816
578.07	99.0458
578.19	99.4147
578.32	99.4413
578.44	99.1650
578.57	99.4638
578.69	99.5103
578.82	99.1487
578.94	99.0195
579.07	98.9841
579.19	98.8728
579.32	99.1321
579.45	99.4026
579.57	99.3158
579.70	99.4140
579.82	99.2067
579.95	99.0914
580.07	98.8130
580.20	98.8784
580.32	98.8241
580.45	98.9770
580.57	98.8318
580.70	98.7754
580.82	99.1129
580.95	98.8541
581.08	98.9217
581.20	98.9292
581.33	99.0756
581.45	98.5401
581.58	99.0212
581.70	98.9280
581.83	98.9187
581.95	99.0014
582.08	99.3116
582.20	99.1803
582.33	99.3409
582.45	99.3393
582.58	99.3205
582.70	99.3072
582.83	99.2273
582.95	99.1517
583.08	99.1199
583.21	99.1659
583.33	99.3953
583.46	99.3583
583.58	99.2236
583.71	99.4538
583.83	99.5015
583.96	99.2870
584.08	99.3151
584.21	99.5727
584.33	99.6670
584.46	99.3741
584.58	99.1085
584.71	99.1749
584.83	99.1797
584.96	98.9042
585.08	98.9333
585.21	99.2126
585.33	99.1882
585.46	99.3187
585.58	99.5470
585.71	99.5786
585.83	99.7210
585.96	99.6365
586.08	99.3739
586.21	99.4556
586.33	99.4935
586.46	99.3573
586.59	99.3280
586.71	99.2441
586.84	99.1774
586.96	99.3128
587.09	98.9204
587.21	98.9626
587.34	99.1605
587.46	98.8662
587.59	98.7560
587.71	99.2422
587.84	99.3454
587.96	99.0721
588.09	99.1588
588.21	99.1562
588.34	99.0056
588.46	98.9939
588.59	99.2570
588.71	99.3373
588.84	99.0297
588.96	99.0066
589.09	99.1142
589.21	99.0773
589.34	98.9015
589.46	99.1137
589.59	99.3037
589.71	99.2511
589.84	99.1306
589.96	99.1827
590.09	99.2446
590.21	99.0655
590.34	99.1975
590.46	99.2692
590.59	99.1509
590.71	99.3902
590.84	99.2046
590.96	98.9265
591.09	98.9934
591.21	99.4069
591.34	99.0206
591.46	99.1388
591.59	99.0816
591.71	99.2214
591.83	98.9717
591.96	99.2191
592.08	99.2913
592.21	99.4509
592.33	99.4070
592.46	99.3657
592.58	99.1852
592.71	99.1817
592.83	98.9633
592.96	98.8879
593.08	99.1136
593.21	99.3366
593.33	99.4124
593.46	99.4579
593.58	99.3788
593.71	99.4631
593.83	99.1674
593.96	99.0204
594.08	99.1795
594.21	99.1367
594.33	99.1031
594.46	99.4615
594.58	99.5456
594.71	99.5066
594.83	99.1012
594.96	98.8693
595.08	98.8366
595.20	98.9664
595.33	98.5330
595.45	98.9524
595.58	99.2281
595.70	99.2372
595.83	99.0365
595.95	99.5172
596.08	99.6940
596.20	99.5123
596.33	99.5272
596.45	99.7768
596.58	99.6065
596.70	99.4732
596.83	99.3825
596.95	99.4612
597.08	99.2508
597.20	99.2540
597.32	99.1701
597.45	99.2013
597.57	99.1166
597.70	99.0929
597.82	99.2472
597.95	99.2754
598.07	99.2582
598.20	99.2676
598.32	99.1957
598.45	99.0131
598.57	99.1320
598.70	99.2515
598.82	98.9766
598.94	98.9599
599.07	99.0906
599.19	99.3466
599.32	99.1077
599.44	99.3386
599.57	99.5457
599.69	99.7478
599.82	99.1755
599.94	99.3013
600.07	99.4535
600.19	99.5272
600.31	99.0589
600.44	99.2327
600.56	99.3628
600.69	99.2350
600.81	99.1452
600.94	99.3394
601.06	99.2903
601.19	99.4463
601.31	99.2293
601.44	99.1793
601.56	99.2381
601.68	99.4040
601.81	99.0010
601.93	99.3371
602.06	99.5436
602.18	99.3822
602.31	99.2185
602.43	99.3877
602.56	99.2541
602.68	98.9369
602.80	99.2149
602.93	99.2551
603.05	99.1811
603.18	99.2407
603.30	99.4595
603.43	99.2987
603.55	99.3808
603.68	99.4774
603.80	99.3826
603.92	99.2833
604.05	99.5360
604.17	99.5169
604.30	99.3752
604.42	99.1585
604.55	99.1189
604.67	98.9039
604.79	98.7858
604.92	98.9129
605.04	99.1348
605.17	99.1495
605.29	98.9496
605.42	99.1044
605.54	98.9998
605.66	98.9146
605.79	98.7972
605.91	99.0399
606.04	98.8702
606.16	98.9184
606.29	99.1542
606.41	99.4116
606.53	99.3356
606.66	99.6136
606.78	99.7234
606.91	99.5489
607.03	99.5045
607.16	99.3924
607.28	99.0773
607.40	99.0296
607.53	99.0752
607.65	99.0889
607.78	99.0457
607.90	99.3685
608.03	99.3646
608.15	99.5164
608.27	99.5326
608.40	99.7955
608.52	99.4391
608.65	99.5840
608.77	99.2429
608.89	98.8721
609.02	98.8704
609.14	98.9361
609.27	98.8298
609.39	99.3338
609.52	99.6378
609.64	99.6642
609.76	99.6549
609.89	99.4076
610.01	99.1579
610.14	99.2001
610.26	98.9686
610.38	99.2536
610.51	99.5308
610.63	99.3787
610.76	99.2829
610.88	99.1392
611.01	98.9294
611.13	98.9353
611.25	99.0587
611.38	99.1851
611.50	99.4388
611.63	99.6294
611.75	99.5684
611.87	99.2987
612.00	99.1391
612.12	99.3487
612.25	99.2150
612.37	99.1633
612.49	99.1145
612.62	99.2015
612.74	99.0018
612.87	99.1118
612.99	99.0057
613.11	99.0428
613.24	99.0086
613.36	99.0629
613.49	99.0278
613.61	99.0508
613.73	99.3850
613.86	99.4712
613.98	99.4097
614.11	99.2701
614.23	99.2742
614.35	99.2104
614.48	99.1574
614.60	99.0941
614.72	99.2260
614.85	99.4022
614.97	99.4612
615.10	99.3907
615.22	99.4709
615.34	99.6140
615.47	99.5903
615.59	99.5100
615.72	99.7940
615.84	99.4834
615.96	99.3231
616.09	99.4024
616.21	99.2352
616.34	98.9123
616.46	99.2439
616.58	99.2252
616.71	99.0225
616.83	98.9993
616.95	99.0729
617.08	99.0845
617.20	99.1409
617.33	98.9625
617.45	99.1171
617.57	99.1708
617.70	99.0344
617.82	98.8637
617.95	99.1255
618.07	99.0433
618.19	98.8497
618.32	99.0361
618.44	99.2492
618.56	99.4126
618.69	99.2507
618.81	99.4419
618.94	99.3209
619.06	99.1801
619.18	99.1026
619.31	99.1647
619.43	98.9582
619.55	99.2866
619.68	99.5060
619.80	99.1259
619.92	99.1305
620.05	99.4788
620.17	99.4556
620.30	99.1942
620.42	99.4294
620.54	99.6186
620.67	99.4477
620.79	98.9749
620.91	99.0011
621.04	99.0686
621.16	99.2344
621.29	99.2408
621.41	99.4807
621.53	99.7393
621.66	99.5559
621.78	99.0788
621.90	99.2523
622.03	99.3417
622.15	99.2359
622.27	99.5520
622.40	99.7761
622.52	99.8854
622.64	99.8615
622.77	99.5630
622.89	99.4629
623.02	99.5072
623.14	99.2083
623.26	98.9828
623.39	99.2823
623.51	99.4262
623.63	99.2477
623.76	99.1918
623.88	99.3742
624.00	99.2204
624.13	99.0330
624.25	99.0660
624.37	98.9006
624.50	99.1233
624.62	99.4052
624.75	99.2458
624.87	99.5079
624.99	99.8060
625.12	99.1501
625.24	98.9203
625.36	99.0731
625.49	98.7700
625.61	98.4220
625.73	98.9081
625.86	98.8706
625.98	98.8893
626.10	98.8878
626.23	99.0460
626.35	99.0085
626.47	99.0403
626.60	98.9940
626.72	98.9987
626.84	99.1783
626.97	99.2782
627.09	99.0009
627.21	98.8603
627.34	99.1983
627.46	99.1802
627.58	98.8513
627.71	99.5109
627.83	99.5044
627.95	98.9754
628.08	98.9249
628.20	99.2482
628.32	98.9232
628.45	99.0024
628.57	99.2361
628.69	99.0512
628.82	99.0442
628.94	99.0205
629.06	98.9946
629.19	99.2892
629.31	99.4380
629.43	99.3669
629.56	99.2342
629.68	99.4345
629.80	99.3246
629.93	99.3242
630.05	99.1996
630.17	99.4737
630.30	99.2943
630.42	99.3493
630.54	99.5491
630.67	99.3578
630.79	99.2931
630.91	99.3595
631.04	99.3140
631.16	99.2482
631.28	99.6235
631.41	99.4062
631.53	99.2388
631.65	98.9984
631.78	98.7850
631.90	98.9150
632.02	98.8595
632.14	99.0542
632.27	99.3010
632.39	99.1313
632.51	98.9344
632.64	99.1955
632.76	99.2155
632.88	99.2653
633.01	99.5124
633.13	99.1610
633.25	99.3213
633.38	99.4366
633.50	99.4079
633.62	99.6013
633.75	99.8413
633.87	99.6711
633.99	99.7159
634.11	99.5090
634.24	99.3854
634.36	99.4576
634.48	99.1712
634.61	99.1699
634.73	99.3708
634.85	99.4118
634.98	99.4845
635.10	99.3999
635.22	99.2073
635.35	99.4213
635.47	99.4028
635.59	99.2704
635.71	99.4524
635.84	99.3238
635.96	99.1407
636.08	98.9910
636.21	98.8962
636.33	99.1431
636.45	99.4294
636.58	99.0694
636.70	99.2222
636.82	99.6675
636.94	99.4673
637.07	99.2544
637.19	99.5391
637.31	99.7017
637.44	99.4389
637.56	99.5481
637.68	99.6305
637.81	100.0078
637.93	99.6899
638.05	99.2214
638.17	99.2123
638.30	99.2707
638.42	98.8563
638.54	98.9891
638.67	99.4097
638.79	99.6083
638.91	99.6529
639.03	99.7878
639.16	99.8180
639.28	99.9099
639.40	99.4724
639.53	99.4215
639.65	99.4698
639.77	99.3215
639.89	99.1805
640.02	99.5150
640.14	99.1802
640.26	99.0615
640.39	99.1459
640.51	98.9764
640.63	98.7439
640.75	99.0479
640.88	99.0157
641.00	98.5997
641.12	98.9870
641.24	99.3685
641.37	98.9900
641.49	99.1064
641.61	99.4957
641.74	99.4766
641.86	99.0661
641.98	99.3705
642.10	99.3476
642.23	99.3235
642.35	99.0245
642.47	99.0040
642.60	99.1059
642.72	99.0007
642.84	98.9490
642.96	99.0331
643.09	99.2556
643.21	99.2248
643.33	99.1905
643.45	99.0549
643.58	99.1890
643.70	99.0731
643.82	99.0645
643.94	99.1686
644.07	99.3593
644.19	99.2238
644.31	99.3747
644.44	99.3917
644.56	99.4050
644.68	99.4943
644.80	99.6457
644.93	99.4835
645.05	99.4663
645.17	99.4519
645.29	99.3824
645.42	99.0576
645.54	99.0214
645.66	99.0179
645.78	98.8463
645.91	98.5721
646.03	98.8542
646.15	98.9270
646.27	98.8743
646.40	98.7931
646.52	99.1260
646.64	99.2272
646.76	99.1017
646.89	99.0538
647.01	99.0821
647.13	99.3210
647.25	99.2314
647.38	99.1937
647.50	99.4925
647.62	99.8366
647.74	99.3869
647.87	99.0834
647.99	99.2554
648.11	99.2392
648.23	98.9491
648.36	99.1786
648.48	99.5511
648.60	99.7748
648.72	99.2391
648.85	99.3101
648.97	99.2892
649.09	99.1830
649.21	98.9235
649.34	99.2034
649.46	99.2970
649.58	99.4312
649.70	99.2523
649.83	99.2417
649.95	99.2665
650.07	99.1803
650.19	98.9137
650.32	98.9562
650.44	99.0430
650.56	99.0756
650.68	99.1569
650.81	99.1038
650.93	99.2191
651.05	99.0448
651.17	99.0239
651.29	98.9488
651.42	99.2143
651.54	99.3955
651.66	99.4446
651.78	99.0510
651.91	99.1266
652.03	99.1812
652.15	99.0097
652.27	99.2287
652.40	99.7183
652.52	99.9095
652.64	99.3919
652.76	99.4058
652.88	99.3595
653.01	99.5016
653.13	99.1009
653.25	99.2349
653.37	99.1276
653.50	99.1535
653.62	98.6242
653.74	98.6204
653.86	98.9718
653.98	99.1195
654.11	99.1054
654.23	99.1453
654.35	99.3066
654.47	99.3348
654.60	99.5720
654.72	99.2287
654.84	99.5141
654.96	99.5801
655.08	99.4714
655.21	99.1395
655.33	99.4320
655.45	99.4848
655.57	99.2929
655.70	99.0266
655.82	98.9778
655.94	99.2009
656.06	98.9840
656.18	98.9921
656.31	99.2653
656.43	99.3919
656.55	99.1470
656.67	99.1204
656.79	99.3577
656.92	99.4369
657.04	99.1730
657.16	99.2492
657.28	99.3108
657.40	99.4013
657.53	99.2596
657.65	99.2190
657.77	99.2948
657.89	99.5554
658.01	99.2772
658.14	99.2948
658.26	99.7047
658.38	99.5857
658.50	99.0599
658.62	99.1924
658.75	99.1344
658.87	99.2455
658.99	99.2335
659.11	99.2709
659.23	99.3144
659.36	99.3382
659.48	99.1198
659.60	99.1337
659.72	99.3959
659.84	99.3570
659.97	98.9839
660.09	98.7742
660.21	98.9546
660.33	99.2324
660.45	99.1072
660.58	99.2519
660.70	99.6266
660.82	99.3402
660.94	98.9002
661.06	98.8236
661.19	99.1509
661.31	98.9738
661.43	98.8711
661.55	98.8750
661.67	99.1556
661.80	99.0083
661.92	98.9536
662.04	98.9928
662.16	99.3066
662.28	99.1657
662.40	99.1203
662.53	99.3000
662.65	99.2720
662.77	99.3342
662.89	99.5341
663.01	99.6031
663.14	99.3701
663.26	99.6663
663.38	99.4134
663.50	98.9720
663.62	98.9490
663.74	99.0832
663.87	98.8184
663.99	98.4393
664.11	98.7347
664.23	98.9478
664.35	98.8351
664.48	99.1298
664.60	99.8050
664.72	99.8880
664.84	99.5997
664.96	99.7705
665.08	99.5635
665.21	99.6578
665.33	99.5025
665.45	99.4563
665.57	99.3671
665.69	99.3959
665.81	99.1508
665.94	98.9970
666.06	99.0477
666.18	99.2787
666.30	99.1372
666.42	98.9848
666.54	99.2432
666.67	99.1502
666.79	98.9462
666.91	99.2529
667.03	99.3675
667.15	99.3537
667.27	99.6629
667.40	99.3781
667.52	99.1747
667.64	99.3676
667.76	99.2037
667.88	98.9504
668.00	99.1662
668.13	99.2936
668.25	99.1785
668.37	99.0759
668.49	99.3687
668.61	99.5058
668.73	99.3930
668.85	99.2044
668.98	99.5524
669.10	99.3389
669.22	98.9798
669.34	99.1720
669.46	99.1924
669.58	98.9596
669.71	99.1828
669.83	99.4023
669.95	99.2745
670.07	99.2771
670.19	99.5008
670.31	99.3960
670.43	99.2703
670.56	99.1793
670.68	99.3742
670.80	98.9046
670.92	98.8624
671.04	99.1274
671.16	99.2815
671.28	99.0080
671.41	99.4229
671.53	99.7180
671.65	99.3135
671.77	99.0363
671.89	99.2806
672.01	99.4891
672.13	99.1479
672.26	99.6298
672.38	99.6840
672.50	99.4732
672.62	99.0776
672.74	99.2007
672.86	99.0397
672.98	99.2470
673.11	99.2113
673.23	99.4635
673.35	99.4643
673.47	99.7035
673.59	99.4998
673.71	99.1850
673.83	99.0157
673.96	99.1283
674.08	98.7386
674.20	98.7899
674.32	99.2772
674.44	99.3787
674.56	99.0231
674.68	99.0231
674.80	99.2575
674.93	99.3133
675.05	99.1783
675.17	99.3324
675.29	99.5872
675.41	99.5057
675.53	99.4959
675.65	99.4370
675.77	99.5472
675.90	99.6196
676.02	99.2508
676.14	98.8757
676.26	99.0665
676.38	98.9812
676.50	98.9174
676.62	99.4695
676.74	99.6815
676.87	99.3893
676.99	99.2847
677.11	99.2024
677.23	98.9212
677.35	99.1615
677.47	99.4312
677.59	99.3626
677.71	99.2854
677.83	99.1379
677.96	99.0232
678.08	99.0642
678.20	99.3259
678.32	99.4464
678.44	99.2896
678.56	99.1614
678.68	99.2731
678.80	99.2430
678.93	99.1386
679.05	99.2752
679.17	99.4780
679.29	99.4187
679.41	99.4030
679.53	99.4118
679.65	99.6437
679.77	99.5484
679.89	99.1965
680.01	99.4228
680.14	99.6177
680.26	99.4070
680.38	99.2989
680.50	99.5497
680.62	99.3208
680.74	99.1993
680.86	99.3955
680.98	99.1389
681.10	99.1709
681.22	99.3465
681.35	99.5719
681.47	99.0551
681.59	99.4661
681.71	99.5399
681.83	99.1424
681.95	98.5842
682.07	99.0260
682.19	99.0241
682.31	98.6237
682.43	98.9203
682.56	99.2410
682.68	99.2466
682.80	99.0450
682.92	99.3702
683.04	99.4138
683.16	99.2019
683.28	99.2086
683.40	99.2266
683.52	99.1629
683.64	99.0546
683.76	99.2321
683.89	99.0103
684.01	99.0565
684.13	99.0634
684.25	98.9423
684.37	98.9866
684.49	98.9407
684.61	99.0193
684.73	99.1577
684.85	98.9618
684.97	99.0370
685.09	99.5629
685.21	99.2897
685.34	99.2266
685.46	99.4676
685.58	99.0991
685.70	98.9471
685.82	99.1725
685.94	99.1106
686.06	99.0889
686.18	99.2970
686.30	99.0963
686.42	99.2390
686.54	98.9041
686.66	98.9826
686.79	98.8090
686.91	98.9038
687.03	99.0978
687.15	99.6241
687.27	99.4729
687.39	99.7691
687.51	99.7864
687.63	99.4211
687.75	98.9143
687.87	99.1940
687.99	99.0053
688.11	98.7819
688.23	98.8873
688.35	99.2435
688.48	99.1155
688.60	99.0441
688.72	99.1909
688.84	99.2692
688.96	99.3791
689.08	98.9262
689.20	99.0412
689.32	99.2916
689.44	99.4488
689.56	99.2690
689.68	99.7301
689.80	99.8022
689.92	99.6557
690.04	99.4249
690.16	99.3587
690.28	99.6225
690.41	99.4884
690.53	99.1178
690.65	98.9321
690.77	98.9929
690.89	98.7023
691.01	98.8609
691.13	99.0465
691.25	99.2187
691.37	99.4561
691.49	99.0784
691.61	98.9032
691.73	99.2153
691.85	99.3181
691.97	98.7922
692.09	99.0612
692.21	98.9917
692.33	99.0445
692.45	98.9583
692.57	99.0542
692.70	99.3782
692.82	99.6167
692.94	99.3619
693.06	99.4450
693.18	99.8078
693.30	99.3694
693.42	99.3140
693.54	99.4109
693.66	99.5728
693.78	99.3460
693.90	99.6224
694.02	99.7945
694.14	99.7166
694.26	99.2245
694.38	99.1577
694.50	99.2076
694.62	99.1566
694.74	99.0862
694.86	99.2961
694.98	99.2837
695.10	99.3492
695.22	99.2495
695.34	99.3936
695.46	99.3538
695.58	99.5031
695.71	99.3700
695.83	99.0042
695.95	99.0083
696.07	99.1123
696.19	99.2242
696.31	98.9692
696.43	99.2982
696.55	99.4383
696.67	99.5191
696.79	99.5200
696.91	99.4464
697.03	99.5052
697.15	99.5315
697.27	99.1815
697.39	99.1462
697.51	99.4866
697.63	99.1562
697.75	98.9765
697.87	99.3476
697.99	99.2402
698.11	99.1681
698.23	99.4158
698.35	99.3678
698.47	99.4492
698.59	99.2159
698.71	99.3494
698.83	99.4625
698.95	99.4977
699.07	99.2004
699.19	99.5089
699.31	99.2950
699.43	99.2958
699.55	99.3293
699.67	99.4467
699.79	99.3809
699.91	99.4233
700.03	99.2805
700.15	99.1408
700.27	99.2911
700.39	99.1668
700.51	99.1932
700.63	99.0630
700.75	99.2720
700.87	99.0074
700.99	99.2971
701.11	99.2631
701.24	99.1550
701.36	98.9485
701.48	99.1457
701.60	98.6831
701.72	98.7631
701.84	99.2266
701.96	99.1612
702.08	98.9225
702.20	99.3161
702.32	99.5163
702.44	99.5756
702.56	99.8146
702.68	99.6526
702.80	99.5335
702.92	99.4567
703.04	99.3507
703.16	99.5517
703.28	99.9150
703.40	99.9350
703.52	99.7941
703.64	99.6389
703.76	99.3452
703.88	99.2431
704.00	99.0418
704.12	99.0519
704.24	98.9903
704.36	99.1049
704.48	98.9989
704.60	99.1768
704.72	98.8907
704.84	98.9406
704.96	99.0502
705.07	99.2967
705.19	99.2303
705.31	99.6992
705.43	99.6666
705.55	99.4767
705.67	99.5875
705.79	99.7543
705.91	99.4755
706.03	99.4488
706.15	99.5830
706.27	99.2952
706.39	99.3151
706.51	99.4664
706.63	99.5295
706.75	99.2905
706.87	99.3900
706.99	99.5729
707.11	99.5511
707.23	99.5197
707.35	99.4189
707.47	99.2237
707.59	99.0235
707.71	98.9023
707.83	99.0189
707.95	98.8931
708.07	98.9991
708.19	99.3331
708.31	99.4525
708.43	99.3579
708.55	99.7254
708.67	99.6812
708.79	99.2715
708.91	99.0661
709.03	99.1757
709.15	99.0319
709.27	99.0424
709.39	98.9457
709.51	99.0186
709.63	99.1861
709.75	99.1370
709.87	99.1913
709.99	99.4082
710.11	99.7037
710.23	99.1797
710.35	99.2175
710.47	99.2598
710.58	99.0532
710.70	98.8303
710.82	99.1302
710.94	99.1299
711.06	99.2020
711.18	99.0478
711.30	98.9355
711.42	98.9374
711.54	99.3337
711.66	99.2322
711.78	99.2162
711.90	99.5289
712.02	99.7970
712.14	99.2237
712.26	98.9115
712.38	99.2835
712.50	99.2252
712.62	99.0329
712.74	98.9051
712.86	99.3450
712.98	99.3341
713.10	99.0640
713.22	98.9079
713.34	99.2628
713.45	99.1802
713.57	99.0040
713.69	99.0709
713.81	99.2644
713.93	99.5847
714.05	99.2525
714.17	99.0589
714.29	99.2880
714.41	99.1236
714.53	98.8444
714.65	99.3134
714.77	99.2572
714.89	99.1660
715.01	99.2733
715.13	99.2774
715.25	99.2628
715.37	99.4254
715.49	99.3409
715.61	99.0815
715.72	99.1672
715.84	99.0821
715.96	99.0192
716.08	98.9482
716.20	99.1827
716.32	99.0801
716.44	98.9787
716.56	98.8722
716.68	98.9344
716.80	99.0610
716.92	99.1759
717.04	99.2679
717.16	99.7375
717.28	99.6295
717.40	99.4221
717.52	99.3206
717.63	99.2142
717.75	99.1099
717.87	99.3710
717.99	99.2064
718.11	99.0777
718.23	99.0205
718.35	99.1807
718.47	99.0228
718.59	99.2645
718.71	99.2391
718.83	99.5648
718.95	99.2982
719.07	99.3107
719.19	99.2566
719.30	99.3528
719.42	99.1319
719.54	99.1778
719.66	99.4574
719.78	99.4868
719.90	99.6397
720.02	99.5887
720.14	99.6516
720.26	99.4174
720.38	99.6441
720.50	99.3644
720.62	99.6296
720.74	99.4803
720.85	99.1383
720.97	99.0677
721.09	99.1202
721.21	98.9131
721.33	99.0566
721.45	99.3070
721.57	99.5088
721.69	99.3309
721.81	99.0707
721.93	99.2071
722.05	99.5336
722.16	99.2669
722.28	99.3811
722.40	99.4129
722.52	99.6061
722.64	99.3735
722.76	99.2484
722.88	99.6667
723.00	99.9103
723.12	99.9409
723.24	99.7063
723.36	99.6093
723.47	99.4051
723.59	99.3002
723.71	99.1305
723.83	99.3728
723.95	99.3609
724.07	98.9887
724.19	99.2502
724.31	99.4329
724.43	99.6207
724.55	99.2366
724.66	99.7820
724.78	99.8360
724.90	99.4582
725.02	99.1860
725.14	100.0735
725.26	99.9034
725.38	99.5711
725.50	99.4862
725.62	99.7099
725.74	99.7914
725.85	99.9171
725.97	98.7700
726.09	99.1549
726.21	99.3238
726.33	99.0853
726.45	98.9465
726.57	100.2566
726.69	99.8708
726.81	99.5569
726.92	99.3532
727.04	99.4007
727.16	99.4153
727.28	99.6347
727.40	99.2075
727.52	99.0550
727.64	99.0349
727.76	99.2201
727.88	99.1754
727.99	99.5826
728.11	99.8280
728.23	99.9028
728.35	99.6976
728.47	99.6249
728.59	99.8459
728.71	99.8666
728.83	99.6072
728.94	99.4142
729.06	99.4288
729.18	99.2474
729.30	99.0063
729.42	99.0370
729.54	99.3105
729.66	99.1829
729.78	99.0906
729.90	99.5383
730.01	99.6173
730.13	99.6734
730.25	99.7183
730.37	99.8810
730.49	99.6158
730.61	99.5826
730.73	99.4994
730.84	99.4762
730.96	99.5444
731.08	99.6708
731.20	99.1204
731.32	99.1337
731.44	99.2258
731.56	98.8606
731.68	98.6933
731.79	99.3879
731.91	99.1667
732.03	99.2356
732.15	99.4897
732.27	99.3535
732.39	99.5132
732.51	99.9236
732.62	99.6283
732.74	99.6599
732.86	99.9725
732.98	99.6704
733.10	99.0309
733.22	99.4815
733.34	99.2982
733.45	99.1714
733.57	99.1609
733.69	99.5397
733.81	99.3571
733.93	99.3537
734.05	99.2569
734.17	99.3053
734.28	99.5212
734.40	99.5373
734.52	99.2187
734.64	99.3303
734.76	99.5904
734.88	99.3137
735.00	98.8685
735.11	99.4520
735.23	99.7164
735.35	99.2337
735.47	99.2719
735.59	99.6637
735.71	99.2839
735.83	98.8777
735.94	99.0229
736.06	98.9181
736.18	98.8676
736.30	99.3477
736.42	99.4886
736.54	98.9803
736.65	99.1784
736.77	99.3708
736.89	98.5561
737.01	98.9028
737.13	99.6002
737.25	99.3738
737.36	99.1047
737.48	99.7129
737.60	99.2710
737.72	98.8433
737.84	99.0408
737.96	99.0045
738.08	99.2086
738.19	99.2444
738.31	99.6554
738.43	99.5364
738.55	99.8784
738.67	99.6801
738.79	99.6258
738.90	99.7438
739.02	99.9415
739.14	99.5588
739.26	99.2345
739.38	99.4774
739.50	99.2924
739.61	99.1001
739.73	99.1019
739.85	99.0643
739.97	99.2938
740.09	99.3092
740.20	99.2666
740.32	99.7982
740.44	100.1446
740.56	99.8064
740.68	99.7625
740.80	99.5973
740.91	99.1509
741.03	99.1914
741.15	98.9388
741.27	98.8943
741.39	98.8645
741.51	98.9916
741.62	98.9317
741.74	99.1947
741.86	99.2330
741.98	99.4432
742.10	99.3385
742.21	99.4063
742.33	98.9667
742.45	99.0036
742.57	98.9256
742.69	99.1070
742.80	99.0827
742.92	99.5906
743.04	99.2433
743.16	99.5886
743.28	99.5157
743.40	99.5547
743.51	99.3943
743.63	99.6948
743.75	99.3891
743.87	99.2681
743.99	99.1111
744.10	99.2692
744.22	99.1276
744.34	99.0049
744.46	99.2711
744.58	99.0087
744.69	98.8723
744.81	99.3009
744.93	99.1920
745.05	98.7533
745.17	99.1380
745.28	99.1690
745.40	98.9716
745.52	99.2166
745.64	99.6392
745.76	99.8205
745.87	99.6281
745.99	99.6980
746.11	99.7853
746.23	99.8042
746.35	98.9934
746.46	98.9685
746.58	98.7450
746.70	98.7043
746.82	98.7013
746.94	99.3843
747.05	99.6703
747.17	99.9449
747.29	99.3991
747.41	99.5358
747.53	99.4734
747.64	99.1734
747.76	98.6949
747.88	99.2501
748.00	99.1485
748.12	99.1777
748.23	99.2278
748.35	99.4164
748.47	99.5736
748.59	99.5303
748.70	99.4508
748.82	99.5851
748.94	99.5266
749.06	99.4882
749.18	99.1599
749.29	99.1436
749.41	99.2547
749.53	99.3103
749.65	99.4661
749.76	99.8125
749.88	99.6290
750.00	99.3432
750.12	99.4235
750.24	99.3364
750.35	98.9121
750.47	99.1806
750.59	99.1307
750.71	99.5300
750.82	99.5508
750.94	99.8774
751.06	99.8407
751.18	100.0708
751.30	99.5867
751.41	99.4754
751.53	99.5310
751.65	99.2608
751.77	99.0988
751.88	99.5472
752.00	99.2139
752.12	99.1305
752.24	99.3383
752.35	99.3724
752.47	98.8377
752.59	99.3884
752.71	99.1054
752.83	99.3922
752.94	99.4231
753.06	99.6001
753.18	99.3390
753.30	99.5854
753.41	99.2240
753.53	99.2148
753.65	99.4463
753.77	99.4498
753.88	99.3216
754.00	99.1748
754.12	99.4672
754.24	99.8489
754.35	99.6757
754.47	99.7670
754.59	100.1692
754.71	100.1614
754.82	99.4015
754.94	99.5720
755.06	99.5333
755.18	99.4349
755.29	99.0608
755.41	99.3067
755.53	99.3181
755.65	99.3380
755.76	98.8012
755.88	98.8102
756.00	99.0034
756.12	98.8731
756.23	98.3748
756.35	98.7767
756.47	99.1895
756.59	98.8698
756.70	99.0670
756.82	99.3865
756.94	99.2938
757.06	99.0662
757.17	99.3539
757.29	99.0129
757.41	99.2047
757.53	99.3001
757.64	99.1368
757.76	98.8995
757.88	99.1346
758.00	99.4277
758.11	99.3280
758.23	99.4455
758.35	99.3080
758.47	99.3182
758.58	99.0109
758.70	99.3260
758.82	99.1565
758.94	99.5059
759.05	99.5314
759.17	99.1540
759.29	98.9038
759.40	99.1018
759.52	98.7381
759.64	98.4395
759.76	98.8512
759.87	99.0217
759.99	99.3093
760.11	99.5082
760.23	99.6699
760.34	99.7037
760.46	99.6152
760.58	99.1588
760.70	99.1093
760.81	99.1894
760.93	99.2660
761.05	99.6119
761.16	99.9053
761.28	100.2037
761.40	99.8918
761.52	99.7062
761.63	99.4467
761.75	99.4809
761.87	99.2796
761.98	99.6839
762.10	99.6655
762.22	99.9592
762.34	99.7233
762.45	99.1335
762.57	99.2928
762.69	99.3207
762.81	99.3568
762.92	99.3496
763.04	99.4814
763.16	99.2709
763.27	99.2608
763.39	98.7267
763.51	98.9092
763.63	99.6940
763.74	99.7803
763.86	99.9839
763.98	99.9252
764.09	100.0093
764.21	99.5854
764.33	99.4531
764.44	99.1604
764.56	99.2821
764.68	99.2550
764.80	98.8046
764.91	98.8966
765.03	99.0989
765.15	99.3848
765.26	98.9529
765.38	99.3747
765.50	99.1814
765.62	99.0030
765.73	98.9048
765.85	98.9842
765.97	99.1457
766.08	99.3620
766.20	99.3970
766.32	99.0481
766.43	99.1890
766.55	99.0427
766.67	98.9800
766.79	99.1296
766.90	99.4791
767.02	99.7480
767.14	99.0425
767.25	98.9917
767.37	99.0475
767.49	98.6811
767.60	98.3145
767.72	99.1624
767.84	99.4030
767.95	99.1593
768.07	99.3168
768.19	99.4864
768.31	99.4336
768.42	99.2406
768.54	99.0671
768.66	99.0973
768.77	99.3646
768.89	99.3638
769.01	99.1884
769.12	99.4755
769.24	99.6612
769.36	99.5325
769.47	99.2163
769.59	99.2916
769.71	99.3150
769.82	99.4667
769.94	99.1489
770.06	99.5044
770.17	99.4634
770.29	99.1262
770.41	99.0172
770.53	99.1700
770.64	98.9406
770.76	98.9173
770.88	99.6738
770.99	99.6064
771.11	99.7475
771.23	99.5445
771.34	99.3348
771.46	98.8584
771.58	98.7094
771.69	98.4011
771.81	99.0150
771.93	99.0267
772.04	99.1808
772.16	99.1631
772.28	99.4479
772.39	98.9762
772.51	99.4245
772.63	99.3746
772.74	98.7783
772.86	98.8997
772.98	99.1557
773.09	98.9685
773.21	98.8661
773.33	99.7441
773.44	99.3350
773.56	98.9857
773.68	99.2333
773.79	99.3890
773.91	99.3672
774.03	99.3290
774.14	99.8397
774.26	100.0598
774.38	99.8243
774.49	99.4152
774.61	99.5784
774.73	99.3009
774.84	98.7321
774.96	98.9717
775.08	99.1449
775.19	99.1188
775.31	99.2774
775.43	99.6995
775.54	99.2050
775.66	99.5404
775.77	99.3333
775.89	98.9824
776.01	98.6522
776.12	99.3269
776.24	99.1823
776.36	99.1145
776.47	99.0550
776.59	99.3582
776.71	99.3162
776.82	99.2647
776.94	99.4267
777.06	100.0075
777.17	100.1668
777.29	99.8270
777.41	99.7718
777.52	99.6130
777.64	99.6873
777.75	99.4521
777.87	99.2068
777.99	99.0594
778.10	99.4221
778.22	99.2340
778.34	99.0178
778.45	99.3872
778.57	99.5768
778.69	99.0799
778.80	99.0492
778.92	99.3340
779.04	99.2727
779.15	99.0180
779.27	99.1673
779.38	99.1921
779.50	98.9515
779.62	99.2963
779.73	98.8158
779.85	99.2086
779.97	99.4310
780.08	99.2538
780.20	98.8118
780.31	99.5428
780.43	99.6328
780.55	99.0398
780.66	98.7109
780.78	99.1899
780.90	99.3806
781.01	99.3285
781.13	99.1189
781.25	99.8313
781.36	99.5607
781.48	98.8659
781.59	98.5830
781.71	99.3361
781.83	99.6540
781.94	99.1814
782.06	99.6588
782.18	100.4381
782.29	99.9270
782.41	99.3534
782.52	99.8563
782.64	100.0224
782.76	100.0815
782.87	99.8023
782.99	99.1986
783.10	99.3724
783.22	99.1632
783.34	98.3279
783.45	98.8505
783.57	99.2153
783.69	98.5198
783.80	98.3891
783.92	98.7294
784.03	98.6557
784.15	99.0949
784.27	99.5844
784.38	99.6302
784.50	99.6851
784.61	99.8686
784.73	99.9761
784.85	99.5633
784.96	99.5317
785.08	99.3992
785.19	99.5585
785.31	99.4956
785.43	99.4088
785.54	99.3294
785.66	98.9617
785.77	99.0724
785.89	98.8993
786.01	99.3372
786.12	99.2227
786.24	99.5466
786.35	99.2993
786.47	99.6008
786.59	99.4242
786.70	99.8178
786.82	99.6883
786.93	99.5413
787.05	99.3869
787.17	99.7724
787.28	99.5107
787.40	99.4727
787.51	99.8104
787.63	99.4472
787.75	98.8972
787.86	99.1106
787.98	99.3305
788.09	98.7643
788.21	98.9287
788.33	99.7013
788.44	99.5061
788.56	99.7514
788.67	99.9128
788.79	100.2157
788.91	100.1646
789.02	99.8093
789.14	99.3546
789.25	99.6220
789.37	99.3595
789.48	99.2130
789.60	99.4142
789.72	99.1553
789.83	99.3477
789.95	99.6969
790.06	99.0589
790.18	99.1268
790.30	99.3465
790.41	98.9501
790.53	98.7238
790.64	98.9375
790.76	99.0513
790.87	98.9324
790.99	98.8905
791.11	98.8924
791.22	98.7579
791.34	98.7732
791.45	99.1475
791.57	99.4267
791.68	98.8436
791.80	98.9726
791.92	99.1787
792.03	99.0676
792.15	98.8362
792.26	99.0361
792.38	99.0149
792.49	98.9984
792.61	99.2784
792.73	99.8865
792.84	101.8211
792.96	97.0481
793.07	97.4805
793.19	98.2736
793.30	98.4013
793.42	97.2624
793.54	101.1674
793.65	100.8455
793.77	100.1761
793.88	99.3371
794.00	98.8820
794.11	99.5398
794.23	99.6652
794.34	99.8556
794.46	99.0895
794.58	98.6189
794.69	99.6399
794.81	99.8582
794.92	98.3730
795.04	98.8405
795.15	99.1843
795.27	98.9861
795.39	98.7559
795.50	99.9402
795.62	100.4701
795.73	100.5118
795.85	99.6202
795.96	99.6039
796.08	99.4099
796.19	99.4671
796.31	99.4760
796.42	99.5762
796.54	99.7061
796.66	100.2124
796.77	99.4705
796.89	100.0758
797.00	100.7373
797.12	100.1231
797.23	99.3848
797.35	99.7437
797.46	99.0020
797.58	98.8947
797.69	99.1535
797.81	99.5310
797.93	99.8113
798.04	99.5623
798.16	99.6659
798.27	99.7883
798.39	99.8640
798.50	99.9655
798.62	99.6858
798.73	99.5911
798.85	99.4259
798.96	98.7544
799.08	98.4604
799.19	99.2284
799.31	99.6029
799.43	99.6287
799.54	99.5680
799.66	99.9051
799.77	100.6289
799.89	100.1815
800.00	99.5689
800.12	99.4706
800.23	99.6920
800.35	99.2233
800.46	98.7384
800.58	99.1705
800.69	99.7619
800.81	98.8889
800.92	98.8780
801.04	99.6489
801.16	99.8672
801.27	99.7036
801.39	100.1166
801.50	99.3952
801.62	98.7203
801.73	99.1026
801.85	99.0025
801.96	98.5848
802.08	99.5856
802.19	100.0480
802.31	99.0411
802.42	99.0008
802.54	99.8212
802.65	98.9276
802.77	99.4771
802.88	99.3803
803.00	99.9166
803.11	99.8134
803.23	100.0203
803.34	99.6857
803.46	99.8870
803.57	99.9445
803.69	99.2824
803.80	99.5924
803.92	99.3196
804.03	99.5319
804.15	99.1528
804.26	100.0321
804.38	99.7351
804.50	99.4590
804.61	99.4738
804.73	100.0448
804.84	99.5418
804.96	99.6908
805.07	99.6889
805.19	99.4695
805.30	99.0458
805.42	99.0059
805.53	99.1585
805.65	99.6627
805.76	99.9327
805.88	99.6626
805.99	99.9175
806.11	99.6733
806.22	99.4522
806.34	99.6709
806.45	99.4338
806.57	99.6046
806.68	99.4094
806.80	99.0145
806.91	99.2201
807.03	99.7779
807.14	99.6127
807.26	99.4727
807.37	100.2796
807.49	99.6936
807.60	99.0201
807.72	99.1206
807.83	99.6499
807.95	99.0699
808.06	98.8906
808.17	99.5928
808.29	99.1031
808.40	98.5993
808.52	98.3141
808.63	98.8413
808.75	98.3202
808.86	98.5453
808.98	98.6823
809.09	99.2316
809.21	99.0383
809.32	100.0877
809.44	99.9013
809.55	100.4537
809.67	99.8935
809.78	99.3655
809.90	98.8986
810.01	98.2265
810.13	98.1028
810.24	98.7216
810.36	99.2710
810.47	98.5796
810.59	98.6018
810.70	98.6740
810.82	98.6217
810.93	98.7762
811.05	99.3377
811.16	99.7432
811.27	98.4992
811.39	98.6257
811.50	99.3895
811.62	98.8803
811.73	98.8601
811.85	99.5737
811.96	99.3939
812.08	98.8589
812.19	99.4710
812.31	100.4832
812.42	100.7138
812.54	100.2538
812.65	99.9934
812.77	99.7370
812.88	99.0840
813.00	99.7461
813.11	100.3079
813.22	100.6974
813.34	99.9000
813.45	99.1824
813.57	99.0590
813.68	99.7141
813.80	99.8832
813.91	99.4491
814.03	100.5074
814.14	99.7675
814.26	98.6332
814.37	98.4543
814.49	99.7125
814.60	98.9216
814.71	99.4115
814.83	99.4865
814.94	98.6420
815.06	99.0725
815.17	100.3376
815.29	98.6985
815.40	99.0890
815.52	100.1771
815.63	99.3528
815.75	99.3982
815.86	100.6487
815.97	99.9098
816.09	98.9243
816.20	100.6704
816.32	99.7445
816.43	100.2424
816.55	99.2947
816.66	100.1919
816.78	99.0762
816.89	99.7894
817.00	100.0910
817.12	100.5869
817.23	100.0287
817.35	100.8609
817.46	98.8235
817.58	98.5897
817.69	99.5111
817.81	99.4088
817.92	98.2130
818.03	100.4639
818.15	100.6380
818.26	100.6043
818.38	105.3417
818.49	111.8854
818.61	92.3230
818.72	93.9635
818.83	101.1057
818.95	97.7847
819.06	90.1598
819.18	110.7766
819.29	108.3959
819.41	100.7868
819.52	99.6191
819.64	101.7304
819.75	101.4741
819.86	99.6619
819.98	99.7712
820.09	100.3594
820.21	97.8564
820.32	95.7474
820.44	98.8244
820.55	98.6655
820.66	98.2231
820.78	99.0895
820.89	101.4394
821.01	99.9129
821.12	101.9648
821.23	99.2673
821.35	99.0795
821.46	100.6413
821.58	101.8752
821.69	98.4555
821.81	99.9866
821.92	98.9984
822.03	99.1654
822.15	99.0258
822.26	99.2471
822.38	99.3972
822.49	100.3815
822.61	97.3190
822.72	96.4664
822.83	99.7326
822.95	98.9557
823.06	97.1699
823.18	97.8889
823.29	99.1131
823.40	101.3799
823.52	97.3060
823.63	99.7488
823.75	104.2417
823.86	99.7011
823.97	98.0569
824.09	103.7011
824.20	105.4066
824.32	101.4649
824.43	100.3849
824.55	100.8489
824.66	102.1023
824.77	97.1566
824.89	97.8727
825.00	100.5006
825.12	99.4420
825.23	100.7850
825.34	99.3135
825.46	98.5893
825.57	105.2426
825.69	102.9873
825.80	103.2598
825.91	104.8217
826.03	107.6000
826.14	100.6108
826.26	100.1043
826.37	95.3661
826.48	103.0913
826.60	98.4715
826.71	98.8686
826.83	91.1392
826.94	88.3197
827.05	86.9215
827.17	90.0334
827.28	94.6990
827.39	100.7147
827.51	105.2680
827.62	103.6421
827.74	109.2045
827.85	106.7025
827.96	88.2891
828.08	98.0910
828.19	127.9580
828.31	109.7143
828.42	95.7822
828.53	113.3064
828.65	21.7285
828.76	0.0000
828.87	0.0000
828.99	0.0000
