Wavelength (nm)	Reflectance (%)
377.35	0.0000
377.48	0.0000
377.62	0.0000
377.75	163.8298
377.88	0.0000
378.02	200.0000
378.15	200.0000
378.28	200.0000
378.41	200.0000
378.55	4.9412
378.68	0.0000
378.81	0.0000
378.95	200.0000
379.08	200.0000
379.21	200.0000
379.35	77.2903
379.48	200.0000
379.61	200.0000
379.74	156.8696
379.88	70.1098
380.01	98.0825
380.14	122.3052
380.28	71.9581
380.41	65.4400
380.54	148.8657
380.68	139.2097
380.81	90.6865
380.94	76.6711
381.07	105.1410
381.21	112.4147
381.34	61.4034
381.47	84.9886
381.61	143.9574
381.74	125.4420
381.87	51.1111
382.00	115.7993
382.14	141.6414
382.27	76.4346
382.40	52.3214
382.54	100.5888
382.67	109.7634
382.80	76.2862
382.93	105.7825
383.07	116.8013
383.20	109.1591
383.33	134.7634
383.47	93.7888
383.60	89.9259
383.73	116.8642
383.86	119.9204
384.00	79.4604
384.13	113.8210
384.26	126.9342
384.40	99.8539
384.53	83.3186
384.66	99.0295
384.79	117.8208
384.93	105.1691
385.06	83.4084
385.19	86.5822
385.33	94.2496
385.46	70.6481
385.59	84.8567
385.72	124.6835
385.86	117.7152
385.99	109.3148
386.12	111.0482
386.25	80.2195
386.39	84.7766
386.52	100.4380
386.65	97.2591
386.79	78.6782
386.92	116.2715
387.05	127.0328
387.18	100.1934
387.32	89.7525
387.45	130.6393
387.58	119.0145
387.71	98.5225
387.85	103.5258
387.98	101.6098
388.11	101.5340
388.25	92.1237
388.38	82.5155
388.51	96.6396
388.64	121.2775
388.78	123.7326
388.91	98.1444
389.04	123.0566
389.17	114.3263
389.31	80.2766
389.44	71.7908
389.57	102.4341
389.70	97.0815
389.84	103.5702
389.97	108.6275
390.10	114.5420
390.24	117.5294
390.37	94.5580
390.50	91.3860
390.63	95.6516
390.77	86.0991
390.90	88.0136
391.03	106.5662
391.16	99.2719
391.30	103.1806
391.43	119.2465
391.56	97.7186
391.69	100.9007
391.83	118.6481
391.96	95.3612
392.09	85.1472
392.22	113.5975
392.36	118.2611
392.49	89.5428
392.62	94.3581
392.75	102.2444
392.89	98.3268
393.02	101.9979
393.15	90.0310
393.28	110.3013
393.42	101.3089
393.55	100.2919
393.68	87.6246
393.81	110.4336
393.95	109.0810
394.08	105.2279
394.21	96.2956
394.34	95.2191
394.48	97.8982
394.61	89.5118
394.74	96.5952
394.87	96.4482
395.01	118.1499
395.14	105.2238
395.27	96.1550
395.40	102.8882
395.54	107.6341
395.67	83.3953
395.80	93.8032
395.93	107.5523
396.07	107.3761
396.20	103.6161
396.33	106.4581
396.46	110.5739
396.59	118.8835
396.73	100.1107
396.86	99.1781
396.99	115.4400
397.12	131.6444
397.26	81.7821
397.39	85.0517
397.52	102.2876
397.65	96.3704
397.79	68.0437
397.92	112.0329
398.05	125.2248
398.18	102.7775
398.32	91.8188
398.45	98.7126
398.58	102.0994
398.71	97.0334
398.84	96.2029
398.98	96.1486
399.11	102.2835
399.24	101.6421
399.37	101.9111
399.51	107.7318
399.64	109.5415
399.77	105.8810
399.90	108.5313
400.03	97.6840
400.17	90.1335
400.30	93.5901
400.43	92.2630
400.56	85.2719
400.70	101.1619
400.83	108.1496
400.96	106.3001
401.09	101.5648
401.23	103.7253
401.36	96.3775
401.49	96.4683
401.62	99.3873
401.75	106.1836
401.89	101.5313
402.02	100.7887
402.15	101.6246
402.28	104.2315
402.41	108.5422
402.55	97.8378
402.68	94.4681
402.81	100.7380
402.94	103.9136
403.08	92.6324
403.21	96.8842
403.34	106.8229
403.47	97.3965
403.60	85.5006
403.74	96.5016
403.87	102.3883
404.00	102.5823
404.13	110.7450
404.26	111.0591
404.40	105.9685
404.53	111.8695
404.66	99.3025
404.79	92.9462
404.93	106.3401
405.06	104.7121
405.19	96.4612
405.32	99.8793
405.45	108.1962
405.59	108.3636
405.72	83.8927
405.85	92.6347
405.98	104.0095
406.11	97.3054
406.25	81.4082
406.38	104.2775
406.51	102.7266
406.64	97.7357
406.77	93.5728
406.91	102.3387
407.04	103.8375
407.17	101.2943
407.30	90.4969
407.43	90.2877
407.57	95.6824
407.70	98.1063
407.83	101.0982
407.96	99.8779
408.09	110.1926
408.23	112.4389
408.36	95.3823
408.49	91.2504
408.62	108.6475
408.75	102.6037
408.89	96.3611
409.02	103.9402
409.15	104.2674
409.28	107.3923
409.41	95.0686
409.55	93.2820
409.68	105.7691
409.81	102.3231
409.94	91.1067
410.07	107.0158
410.20	108.6165
410.34	102.6404
410.47	101.0858
410.60	106.2975
410.73	101.0435
410.86	102.2869
411.00	102.2757
411.13	104.1746
411.26	96.2711
411.39	96.8621
411.52	93.6940
411.66	95.5534
411.79	94.1452
411.92	99.5614
412.05	100.4855
412.18	97.4156
412.31	93.5530
412.45	104.8642
412.58	105.7017
412.71	98.2092
412.84	106.3574
412.97	112.4724
413.11	104.2923
413.24	94.1700
413.37	105.2708
413.50	106.5786
413.63	100.1921
413.76	98.8451
413.90	109.5178
414.03	105.9059
414.16	101.4464
414.29	93.5186
414.42	98.5836
414.56	96.2754
414.69	95.9663
414.82	93.2271
414.95	102.3284
415.08	95.5709
415.21	103.7612
415.35	100.6905
415.48	97.3624
415.61	107.8161
415.74	112.2796
415.87	91.4902
416.00	96.9686
416.14	108.5495
416.27	100.3940
416.40	96.7038
416.53	109.0272
416.66	111.8161
416.79	101.8817
416.93	99.9791
417.06	102.5970
417.19	103.7920
417.32	104.4118
417.45	100.1810
417.58	100.8294
417.72	100.3906
417.85	93.9874
417.98	92.5696
418.11	101.0125
418.24	100.8304
418.37	101.8833
418.51	99.9742
418.64	95.9484
418.77	100.3648
418.90	100.2009
419.03	92.9159
419.16	103.5103
419.29	110.5866
419.43	92.9131
419.56	90.6883
419.69	101.0274
419.82	98.2725
419.95	92.0728
420.08	96.6161
420.22	97.1863
420.35	94.0691
420.48	99.0133
420.61	93.6907
420.74	103.4735
420.87	108.0483
421.00	103.8522
421.14	92.7254
421.27	97.7190
421.40	97.1416
421.53	96.5852
421.66	100.6513
421.79	105.7545
421.93	110.3689
422.06	105.7778
422.19	102.5427
422.32	102.6489
422.45	106.5831
422.58	99.3080
422.71	97.3570
422.85	102.4623
422.98	104.4603
423.11	102.4444
423.24	105.0054
423.37	106.8576
423.50	104.0832
423.63	102.9861
423.77	100.2726
423.90	96.5448
424.03	98.5895
424.16	101.9936
424.29	101.9037
424.42	104.4287
424.55	105.2480
424.69	104.0241
424.82	104.1413
424.95	98.8100
425.08	97.7025
425.21	100.2925
425.34	99.5993
425.47	98.5953
425.60	102.5015
425.74	101.8434
425.87	99.7990
426.00	102.3918
426.13	101.5289
426.26	101.8477
426.39	98.0648
426.52	101.0079
426.66	105.2427
426.79	96.5205
426.92	92.4748
427.05	98.7940
427.18	99.2891
427.31	95.3484
427.44	99.9809
427.57	105.5929
427.71	103.2606
427.84	96.9445
427.97	94.4431
428.10	100.3549
428.23	106.0036
428.36	98.9494
428.49	98.0932
428.62	101.6705
428.76	103.8100
428.89	96.4364
429.02	97.2903
429.15	104.3333
429.28	103.7581
429.41	99.4984
429.54	96.5908
429.67	103.3008
429.81	104.6814
429.94	99.5107
430.07	92.3605
430.20	96.1663
430.33	96.2372
430.46	93.1577
430.59	99.0443
430.72	103.5252
430.85	104.5876
430.99	101.1190
431.12	97.8418
431.25	98.4210
431.38	102.3677
431.51	95.9238
431.64	96.5011
431.77	101.7512
431.90	102.5487
432.03	99.0088
432.17	101.0561
432.30	104.0167
432.43	101.4683
432.56	97.7174
432.69	95.0041
432.82	97.2241
432.95	96.5907
433.08	97.5641
433.21	97.6898
433.35	102.3406
433.48	101.3198
433.61	102.5180
433.74	99.9668
433.87	102.8816
434.00	101.6938
434.13	101.1995
434.26	98.1696
434.39	101.5174
434.53	99.7024
434.66	101.2790
434.79	97.3459
434.92	101.8720
435.05	102.3312
435.18	97.7054
435.31	95.7806
435.44	101.6124
435.57	102.8685
435.70	99.7249
435.84	96.8276
435.97	98.8372
436.10	99.5900
436.23	94.9815
436.36	94.9526
436.49	101.6815
436.62	98.7858
436.75	96.6889
436.88	97.3186
437.01	101.4373
437.14	101.4995
437.28	98.4379
437.41	96.0637
437.54	99.3601
437.67	101.4031
437.80	93.2204
437.93	94.2365
438.06	100.8680
438.19	100.3272
438.32	95.1074
438.45	98.9421
438.58	100.9724
438.72	99.5340
438.85	97.1924
438.98	96.4755
439.11	99.0564
439.24	99.4882
439.37	95.0078
439.50	96.4673
439.63	99.5445
439.76	100.9255
439.89	100.6061
440.02	99.5364
440.15	99.4557
440.29	100.7309
440.42	98.0783
440.55	94.4399
440.68	100.5352
440.81	101.7244
440.94	95.2848
441.07	96.5311
441.20	102.3578
441.33	99.7086
441.46	97.4923
441.59	101.9591
441.72	103.2445
441.85	101.3339
441.99	98.3705
442.12	97.8275
442.25	98.0008
442.38	100.4417
442.51	100.4600
442.64	102.5218
442.77	104.1773
442.90	104.8311
443.03	102.1446
443.16	99.2434
443.29	100.9720
443.42	99.1823
443.55	98.7337
443.68	98.7175
443.82	102.4931
443.95	99.9538
444.08	101.1892
444.21	100.0767
444.34	99.9402
444.47	99.0461
444.60	101.1553
444.73	98.2658
444.86	98.3205
444.99	99.1930
445.12	100.8674
445.25	98.9290
445.38	100.4846
445.51	102.8079
445.64	106.1008
445.78	99.3164
445.91	98.1128
446.04	102.4018
446.17	98.9831
446.30	94.1978
446.43	101.1969
446.56	104.0196
446.69	98.2830
446.82	97.1095
446.95	98.6662
447.08	98.8534
447.21	96.7805
447.34	97.7626
447.47	100.3499
447.60	98.1108
447.73	97.1418
447.86	98.9425
447.99	99.2930
448.13	100.5099
448.26	100.7189
448.39	98.4855
448.52	98.9637
448.65	99.5913
448.78	96.6923
448.91	99.4375
449.04	99.7130
449.17	98.7014
449.30	99.7637
449.43	98.6287
449.56	97.0960
449.69	101.0513
449.82	99.5163
449.95	97.1240
450.08	100.0212
450.21	101.1045
450.34	97.7601
450.47	100.3738
450.60	103.3532
450.73	104.8047
450.87	103.4585
451.00	98.5686
451.13	99.2395
451.26	97.1468
451.39	95.2677
451.52	95.4616
451.65	101.0500
451.78	101.9171
451.91	100.0533
452.04	98.1413
452.17	100.8124
452.30	101.6044
452.43	97.5415
452.56	101.9404
452.69	101.4264
452.82	99.4272
452.95	100.6635
453.08	100.0913
453.21	99.6147
453.34	102.0441
453.47	98.9683
453.60	96.6858
453.73	99.4009
453.86	97.6657
453.99	98.1605
454.12	100.2630
454.25	101.4391
454.38	100.2168
454.52	100.3856
454.65	100.9043
454.78	100.7567
454.91	100.2535
455.04	102.1095
455.17	99.5736
455.30	99.5496
455.43	102.1021
455.56	100.3247
455.69	97.8738
455.82	101.4276
455.95	100.7435
456.08	99.5070
456.21	101.3356
456.34	101.7990
456.47	101.2789
456.60	101.4683
456.73	99.5131
456.86	99.3919
456.99	100.6038
457.12	98.4522
457.25	97.1529
457.38	97.8058
457.51	97.4475
457.64	96.7335
457.77	98.2212
457.90	98.8988
458.03	99.3397
458.16	98.7443
458.29	99.6233
458.42	100.3108
458.55	101.1536
458.68	99.4995
458.81	96.4602
458.94	98.2760
459.07	99.8756
459.20	98.8591
459.33	97.8188
459.46	100.6644
459.59	100.3021
459.72	96.6589
459.85	96.0347
459.98	99.1102
460.11	101.1186
460.24	97.6185
460.37	98.6964
460.50	100.4151
460.63	100.2895
460.76	97.3650
460.89	98.3966
461.02	100.1032
461.15	100.0500
461.28	97.4354
461.41	99.9683
461.54	101.0067
461.67	98.9653
461.80	98.6546
461.93	99.5739
462.06	98.9442
462.19	99.6729
462.32	98.8332
462.45	98.7619
462.58	99.4734
462.71	99.9032
462.84	98.0701
462.97	98.5974
463.10	97.4698
463.23	97.6364
463.36	98.0810
463.49	98.0983
463.62	98.8460
463.75	99.9229
463.88	102.0532
464.01	98.2690
464.14	99.6377
464.27	100.8095
464.40	99.7011
464.53	97.5740
464.66	98.9571
464.79	98.9127
464.92	97.9070
465.05	98.3087
465.18	98.6921
465.31	100.4806
465.44	100.6181
465.57	97.8540
465.70	98.6379
465.83	100.3598
465.96	98.5450
466.09	97.2367
466.22	100.7182
466.35	100.9908
466.48	99.4500
466.61	99.7081
466.74	99.3802
466.87	98.2521
467.00	96.7584
467.13	97.8125
467.26	99.5912
467.39	100.5169
467.52	99.1837
467.65	100.3495
467.78	99.1374
467.91	97.8593
468.04	97.8790
468.17	100.3470
468.30	100.5512
468.43	100.2111
468.56	99.6009
468.69	100.8190
468.82	100.3824
468.95	100.2700
469.08	101.2596
469.21	100.5947
469.34	98.4073
469.47	99.2881
469.60	99.2111
469.73	98.1145
469.86	101.0691
469.99	102.3113
470.11	100.1057
470.24	99.6650
470.37	100.8597
470.50	100.1222
470.63	99.0474
470.76	98.5250
470.89	100.0710
471.02	100.2757
471.15	97.7212
471.28	97.1687
471.41	99.2211
471.54	99.2680
471.67	97.2199
471.80	98.4187
471.93	100.1041
472.06	100.8533
472.19	97.8678
472.32	98.2813
472.45	99.0771
472.58	98.6262
472.71	97.6812
472.84	99.8984
472.97	99.5592
473.10	100.2149
473.23	99.0364
473.36	98.4146
473.49	97.8715
473.62	98.4006
473.74	98.1139
473.87	100.2053
474.00	100.4824
474.13	100.1785
474.26	100.9033
474.39	100.4661
474.52	98.8411
474.65	99.9595
474.78	100.6866
474.91	98.7767
475.04	98.6856
475.17	99.7145
475.30	98.3692
475.43	98.2006
475.56	99.8807
475.69	100.8006
475.82	99.7745
475.95	100.6154
476.08	100.7368
476.21	100.5911
476.34	98.9126
476.46	99.9939
476.59	99.7522
476.72	100.0360
476.85	98.9119
476.98	99.1151
477.11	99.5604
477.24	99.0288
477.37	97.8217
477.50	98.9614
477.63	99.5341
477.76	98.8952
477.89	98.6128
478.02	98.8289
478.15	98.8183
478.28	99.2834
478.41	98.1068
478.54	98.7772
478.66	99.1594
478.79	99.2316
478.92	98.6185
479.05	99.6733
479.18	99.0253
479.31	99.2472
479.44	99.0355
479.57	99.0114
479.70	99.6749
479.83	100.5848
479.96	98.8513
480.09	98.3522
480.22	98.6044
480.35	97.9756
480.48	97.7569
480.60	98.5593
480.73	99.2531
480.86	99.3971
480.99	99.0653
481.12	97.8871
481.25	98.9145
481.38	98.8291
481.51	97.9633
481.64	98.1701
481.77	99.4043
481.90	99.2514
482.03	98.4865
482.16	99.1950
482.29	99.2748
482.41	99.5349
482.54	99.5602
482.67	100.0642
482.80	100.5792
482.93	100.0759
483.06	99.3934
483.19	99.4908
483.32	99.7961
483.45	98.9022
483.58	98.6624
483.71	98.4344
483.84	98.0074
483.97	97.7499
484.09	97.8616
484.22	98.6079
484.35	98.7916
484.48	98.5948
484.61	98.6787
484.74	99.0198
484.87	98.6923
485.00	99.0859
485.13	99.1998
485.26	99.6412
485.39	98.7545
485.52	98.6076
485.64	98.0922
485.77	98.7051
485.90	98.3977
486.03	99.5007
486.16	99.6241
486.29	99.7849
486.42	99.6612
486.55	99.2360
486.68	98.7055
486.81	99.2669
486.94	99.1352
487.06	98.4406
487.19	98.7842
487.32	99.0786
487.45	98.5682
487.58	99.1222
487.71	99.3046
487.84	98.9077
487.97	98.6471
488.10	99.1471
488.23	98.5056
488.35	98.9763
488.48	99.4930
488.61	99.7538
488.74	99.4432
488.87	99.0334
489.00	98.8616
489.13	99.0105
489.26	98.8839
489.39	98.7219
489.52	99.4129
489.64	99.1916
489.77	98.8354
489.90	98.4779
490.03	98.6444
490.16	98.8232
490.29	98.4341
490.42	98.8419
490.55	99.0735
490.68	99.6207
490.81	98.8493
490.93	99.2203
491.06	98.9595
491.19	98.5626
491.32	98.1412
491.45	98.4393
491.58	98.5636
491.71	98.8480
491.84	98.6439
491.97	98.4724
492.09	99.0984
492.22	98.9152
492.35	98.7636
492.48	99.6229
492.61	99.3880
492.74	99.0464
492.87	99.4109
493.00	98.9879
493.12	98.7289
493.25	99.2867
493.38	99.7373
493.51	99.3209
493.64	99.4730
493.77	99.4690
493.90	98.7841
494.03	98.1550
494.16	98.5280
494.28	98.9991
494.41	98.3628
494.54	98.5121
494.67	99.2427
494.80	99.0093
494.93	98.6918
495.06	99.4891
495.19	100.0188
495.31	99.7607
495.44	99.6344
495.57	99.8244
495.70	100.0805
495.83	100.0084
495.96	99.2757
496.09	99.0482
496.22	99.4906
496.34	99.1778
496.47	98.5045
496.60	98.5745
496.73	99.2397
496.86	98.3392
496.99	98.4582
497.12	98.8257
497.24	98.9755
497.37	98.7783
497.50	99.2161
497.63	98.4149
497.76	97.9800
497.89	98.8122
498.02	98.8087
498.15	98.4281
498.27	98.7118
498.40	99.1751
498.53	98.5852
498.66	98.9725
498.79	99.0290
498.92	99.0763
499.05	99.1421
499.17	98.4458
499.30	97.9769
499.43	98.5902
499.56	98.6746
499.69	98.6460
499.82	99.5459
499.95	99.8266
500.07	99.4616
500.20	98.7458
500.33	98.7884
500.46	98.9402
500.59	98.7332
500.72	98.4528
500.85	99.0705
500.97	99.5858
501.10	99.4440
501.23	98.9155
501.36	99.0216
501.49	99.4826
501.62	98.5728
501.75	98.8343
501.87	99.2545
502.00	99.2093
502.13	99.1587
502.26	99.4986
502.39	99.3549
502.52	99.3365
502.64	98.9949
502.77	98.7811
502.90	99.1095
503.03	98.9593
503.16	98.6038
503.29	99.0810
503.42	99.3593
503.54	99.2765
503.67	98.6589
503.80	99.5821
503.93	99.7413
504.06	99.1023
504.19	99.0384
504.31	99.4036
504.44	98.9201
504.57	99.1580
504.70	99.4535
504.83	99.4163
504.96	99.5886
505.08	99.0104
505.21	98.5294
505.34	98.6959
505.47	98.6775
505.60	98.7268
505.73	98.7164
505.85	99.1482
505.98	99.5458
506.11	99.6059
506.24	99.4674
506.37	99.6672
506.50	99.5390
506.62	99.1721
506.75	98.7564
506.88	99.0397
507.01	99.2774
507.14	99.1271
507.27	99.0725
507.39	99.5308
507.52	98.9428
507.65	99.3096
507.78	99.0893
507.91	98.8902
508.04	98.6257
508.16	98.9399
508.29	99.1207
508.42	99.5030
508.55	99.0793
508.68	99.2574
508.81	99.4085
508.93	98.9445
509.06	98.6968
509.19	99.4353
509.32	99.1596
509.45	99.1837
509.57	99.2236
509.70	99.3604
509.83	99.1236
509.96	99.3047
510.09	99.1502
510.22	99.2729
510.34	98.7311
510.47	98.8227
510.60	98.7439
510.73	98.6998
510.86	98.7145
510.98	99.0029
511.11	98.9330
511.24	99.2379
511.37	99.4021
511.50	99.3525
511.63	99.6167
511.75	99.6108
511.88	99.4630
512.01	99.3515
512.14	99.3840
512.27	99.3301
512.39	99.2956
512.52	99.2772
512.65	99.3113
512.78	99.0470
512.91	98.8097
513.03	98.6246
513.16	98.6071
513.29	98.3908
513.42	98.2277
513.55	98.6489
513.67	99.0658
513.80	98.8665
513.93	98.7976
514.06	99.1909
514.19	98.8199
514.31	98.9145
514.44	98.9949
514.57	98.9047
514.70	99.1399
514.83	99.4723
514.95	99.2201
515.08	99.2778
515.21	99.5417
515.34	99.4864
515.47	99.2750
515.59	99.2413
515.72	98.8510
515.85	99.0302
515.98	98.6976
516.11	98.4950
516.23	98.6779
516.36	99.2636
516.49	98.8886
516.62	98.6942
516.75	99.3521
516.87	99.2695
517.00	98.6208
517.13	98.8735
517.26	99.7048
517.39	99.1986
517.51	98.6569
517.64	99.3275
517.77	99.1690
517.90	98.7323
518.02	99.0972
518.15	99.3887
518.28	99.0504
518.41	99.0157
518.54	98.9572
518.66	98.8789
518.79	99.0409
518.92	99.0224
519.05	98.8516
519.18	98.8692
519.30	98.6846
519.43	98.7026
519.56	98.5336
519.69	98.9804
519.81	99.1705
519.94	99.0733
520.07	98.9844
520.20	99.1937
520.33	99.1638
520.45	98.9830
520.58	98.9105
520.71	98.9718
520.84	99.1660
520.96	99.1906
521.09	98.9161
521.22	98.8777
521.35	99.1113
521.48	99.1549
521.60	98.9439
521.73	98.6066
521.86	98.9065
521.99	98.8759
522.11	98.4957
522.24	98.6369
522.37	98.7189
522.50	98.9548
522.62	98.7623
522.75	99.0392
522.88	98.9029
523.01	99.1513
523.14	98.5225
523.26	98.8176
523.39	98.4113
523.52	98.4550
523.65	98.6424
523.77	98.8314
523.90	98.4400
524.03	98.7129
524.16	98.8285
524.28	98.7939
524.41	99.1880
524.54	99.3969
524.67	99.2362
524.79	98.9207
524.92	99.2376
525.05	98.8912
525.18	99.1431
525.31	98.7267
525.43	99.1899
525.56	99.4256
525.69	99.3163
525.82	98.8253
525.94	99.5729
526.07	99.5756
526.20	98.9205
526.33	99.0383
526.45	99.2930
526.58	99.3072
526.71	98.9319
526.84	99.2585
526.96	99.1806
527.09	99.1815
527.22	99.3353
527.35	99.1600
527.47	99.2458
527.60	99.2615
527.73	99.0460
527.86	98.7999
527.98	99.2873
528.11	98.8100
528.24	99.0613
528.37	99.0733
528.49	98.6436
528.62	98.8229
528.75	99.1157
528.88	98.9116
529.00	99.2300
529.13	99.7710
529.26	99.1535
529.39	98.9882
529.51	99.3931
529.64	99.3118
529.77	98.9972
529.90	99.2990
530.02	99.6407
530.15	99.3720
530.28	99.2671
530.40	99.3021
530.53	99.4039
530.66	98.8967
530.79	98.8576
530.91	98.7450
531.04	98.8598
531.17	98.6713
531.30	98.9634
531.42	98.4534
531.55	98.7398
531.68	98.8863
531.81	98.8783
531.93	99.0337
532.06	99.3900
532.19	99.0516
532.31	98.7590
532.44	99.0220
532.57	98.8386
532.70	98.7582
532.82	98.6445
532.95	98.5687
533.08	98.4806
533.21	98.6179
533.33	98.7821
533.46	98.5459
533.59	98.9208
533.71	99.0554
533.84	99.0840
533.97	99.0930
534.10	99.5173
534.22	99.4344
534.35	99.0040
534.48	98.9774
534.61	99.1253
534.73	99.0025
534.86	98.7246
534.99	99.0169
535.11	99.0173
535.24	99.0738
535.37	99.4806
535.50	99.6072
535.62	99.4054
535.75	99.3805
535.88	99.1201
536.00	98.7099
536.13	98.7246
536.26	98.9956
536.39	98.7349
536.51	98.9261
536.64	99.2491
536.77	99.2274
536.89	98.9378
537.02	99.1067
537.15	98.8652
537.28	98.8324
537.40	98.6549
537.53	98.7126
537.66	98.8686
537.78	99.1577
537.91	99.1055
538.04	99.6803
538.17	99.5271
538.29	99.0780
538.42	98.8925
538.55	99.0232
538.67	98.6824
538.80	99.2049
538.93	99.2994
539.05	99.2356
539.18	99.0634
539.31	99.4159
539.44	99.1113
539.56	99.4254
539.69	99.8538
539.82	100.0400
539.94	99.3432
540.07	99.3573
540.20	99.2260
540.32	98.7375
540.45	98.2564
540.58	98.8661
540.71	99.0910
540.83	99.2329
540.96	99.1123
541.09	99.2103
541.21	99.2693
541.34	99.2504
541.47	99.0912
541.59	99.0590
541.72	99.3562
541.85	99.5363
541.98	99.4882
542.10	99.1520
542.23	99.4669
542.36	99.4556
542.48	99.1471
542.61	98.8914
542.74	99.2868
542.86	99.3849
542.99	99.2013
543.12	99.1887
543.24	99.1587
543.37	99.1086
543.50	98.9125
543.62	99.1595
543.75	99.1767
543.88	99.1414
544.01	98.9962
544.13	99.1041
544.26	98.9501
544.39	98.7155
544.51	98.7419
544.64	98.9836
544.77	98.7591
544.89	98.8728
545.02	98.7626
545.15	98.5171
545.27	98.4722
545.40	98.5650
545.53	98.6372
545.65	99.1063
545.78	99.5189
545.91	99.3973
546.03	99.6782
546.16	99.6097
546.29	99.3465
546.41	99.4945
546.54	99.4375
546.67	99.0560
546.79	99.2661
546.92	99.2388
547.05	99.1164
547.17	99.2253
547.30	99.6208
547.43	99.3085
547.56	99.4349
547.68	99.3262
547.81	99.2700
547.94	99.0636
548.06	98.7711
548.19	98.7476
548.32	98.9461
548.44	98.8994
548.57	98.6981
548.70	98.9930
548.82	99.0416
548.95	99.1042
549.08	98.8535
549.20	99.0461
549.33	99.1391
549.45	99.3403
549.58	99.0724
549.71	99.7585
549.83	99.7793
549.96	99.6972
550.09	99.3380
550.21	99.5739
550.34	99.2466
550.47	99.5350
550.59	99.4700
550.72	99.1601
550.85	99.1625
550.97	99.3915
551.10	98.9239
551.23	98.9583
551.35	99.5151
551.48	99.6014
551.61	99.1891
551.73	99.2733
551.86	99.3649
551.99	98.9408
552.11	98.6189
552.24	98.9748
552.37	99.1648
552.49	99.1528
552.62	99.4560
552.75	99.6595
552.87	99.5380
553.00	99.5367
553.12	99.4430
553.25	99.2508
553.38	99.1630
553.50	99.3542
553.63	99.2039
553.76	99.2942
553.88	99.5560
554.01	99.4970
554.14	99.1436
554.26	99.4517
554.39	99.4665
554.52	99.4405
554.64	99.4169
554.77	99.4860
554.89	99.1962
555.02	99.1417
555.15	99.0185
555.27	98.7896
555.40	98.9780
555.53	99.2036
555.65	99.0043
555.78	98.8281
555.91	99.2659
556.03	99.3149
556.16	99.0349
556.29	98.9658
556.41	99.3170
556.54	99.2748
556.66	98.7417
556.79	98.7876
556.92	99.2874
557.04	99.0810
557.17	98.9008
557.30	99.2729
557.42	99.1783
557.55	98.9534
557.67	98.9004
557.80	98.8861
557.93	99.1384
558.05	99.2633
558.18	99.1181
558.31	99.0281
558.43	99.1098
558.56	98.9841
558.68	98.9084
558.81	98.7023
558.94	98.9998
559.06	99.0410
559.19	98.9946
559.32	99.0331
559.44	99.3576
559.57	99.2515
559.69	99.0116
559.82	98.8980
559.95	99.1029
560.07	99.0507
560.20	98.7914
560.33	99.0862
560.45	98.8160
560.58	98.7614
560.70	98.8307
560.83	99.0260
560.96	98.7366
561.08	99.2044
561.21	99.3826
561.33	99.0537
561.46	99.1362
561.59	99.3627
561.71	99.2470
561.84	98.9173
561.97	99.3870
562.09	99.3891
562.22	99.1657
562.34	99.1239
562.47	99.1979
562.60	99.0749
562.72	98.9157
562.85	99.0878
562.97	99.1153
563.10	99.1537
563.23	99.0105
563.35	99.0182
563.48	98.8533
563.60	98.9754
563.73	98.9813
563.86	99.0294
563.98	99.1890
564.11	99.0590
564.23	98.9122
564.36	98.7606
564.49	98.9161
564.61	98.9388
564.74	99.0283
564.86	98.9962
564.99	98.9361
565.12	98.8699
565.24	98.7433
565.37	98.7942
565.49	98.8726
565.62	99.3001
565.75	98.8134
565.87	98.8033
566.00	99.1775
566.12	98.9145
566.25	98.7139
566.38	98.9769
566.50	98.9401
566.63	98.7311
566.75	98.9694
566.88	98.8580
567.01	99.0410
567.13	99.2854
567.26	99.0779
567.38	99.1531
567.51	99.1317
567.64	99.0331
567.76	98.8923
567.89	99.0872
568.01	98.8708
568.14	98.8773
568.26	98.9660
568.39	98.9044
568.52	98.8845
568.64	98.9982
568.77	99.0009
568.89	99.0993
569.02	99.1551
569.15	98.9835
569.27	98.7400
569.40	98.7175
569.52	98.6587
569.65	98.7524
569.77	99.0050
569.90	98.9618
570.03	99.1660
570.15	99.1629
570.28	99.2962
570.40	99.1727
570.53	99.3591
570.66	99.2583
570.78	99.3089
570.91	99.0330
571.03	99.0738
571.16	99.2578
571.28	99.2255
571.41	99.3125
571.54	99.3341
571.66	99.2760
571.79	99.2042
571.91	99.0707
572.04	98.6498
572.16	98.6621
572.29	98.6603
572.42	98.6917
572.54	98.6593
572.67	98.9371
572.79	98.9400
572.92	98.9417
573.04	99.0499
573.17	99.3722
573.29	99.0424
573.42	98.9238
573.55	98.9706
573.67	98.8775
573.80	98.7765
573.92	98.8550
574.05	98.8715
574.17	98.8240
574.30	98.8854
574.43	98.7333
574.55	98.9956
574.68	99.1271
574.80	99.3213
574.93	99.3134
575.05	99.4246
575.18	99.2480
575.30	99.0662
575.43	99.0474
575.56	99.0129
575.68	99.1161
575.81	99.1202
575.93	99.2555
576.06	99.2975
576.18	99.3077
576.31	98.8800
576.43	98.9343
576.56	99.0058
576.69	99.0142
576.81	99.0151
576.94	99.2938
577.06	99.3684
577.19	99.2328
577.31	98.8250
577.44	98.7655
577.56	98.6176
577.69	98.6900
577.82	99.0483
577.94	99.0962
578.07	98.8919
578.19	99.2770
578.32	99.2909
578.44	99.0131
578.57	99.3066
578.69	99.3825
578.82	99.0556
578.94	98.9448
579.07	98.9229
579.19	98.8200
579.32	99.0679
579.45	99.3420
579.57	99.3089
579.70	99.4459
579.82	99.2796
579.95	99.2328
580.07	99.0308
580.20	99.1146
580.32	99.1040
580.45	99.3468
580.57	99.2832
580.70	99.2456
580.82	99.6230
580.95	99.3891
581.08	99.3785
581.20	99.2893
581.33	99.3724
581.45	98.7672
581.58	99.1472
581.70	99.0126
581.83	98.9599
581.95	98.9970
582.08	99.2610
582.20	99.1059
582.33	99.2100
582.45	99.1565
582.58	99.0775
582.70	99.0059
582.83	98.8807
582.95	98.8171
583.08	98.8316
583.21	98.9517
583.33	99.2782
583.46	99.3327
583.58	99.2362
583.71	99.4145
583.83	99.3983
583.96	99.1033
584.08	99.0435
584.21	99.2763
584.33	99.4473
584.46	99.2500
584.58	99.0862
584.71	99.2625
584.83	99.3336
584.96	99.0281
585.08	98.9926
585.21	99.1814
585.33	99.0337
585.46	99.0230
585.58	99.2077
585.71	99.2127
585.83	99.3583
585.96	99.3520
586.08	99.1843
586.21	99.3297
586.33	99.4397
586.46	99.3496
586.59	99.3339
586.71	99.2773
586.84	99.1945
586.96	99.2564
587.09	98.8327
587.21	98.8397
587.34	99.0277
587.46	98.7545
587.59	98.7445
587.71	99.3021
587.84	99.4679
587.96	99.1910
588.09	99.2786
588.21	99.2239
588.34	99.0567
588.46	99.0056
588.59	99.2460
588.71	99.3278
588.84	99.0634
588.96	99.0090
589.09	99.1272
589.21	99.1516
589.34	98.9622
589.46	99.1317
589.59	99.3434
589.71	99.3084
589.84	99.1496
589.96	99.2149
590.09	99.3042
590.21	99.0980
590.34	99.1653
590.46	99.2207
590.59	99.1167
590.71	99.3527
590.84	99.2116
590.96	99.0404
591.09	99.1341
591.21	99.5027
591.34	99.0663
591.46	99.1299
591.59	98.9771
591.71	99.0927
591.83	98.8743
591.96	99.1797
592.08	99.2824
592.21	99.4706
592.33	99.3966
592.46	99.3039
592.58	99.0546
592.71	99.0169
592.83	98.7695
592.96	98.7590
593.08	99.0521
593.21	99.3590
593.33	99.4812
593.46	99.5677
593.58	99.4635
593.71	99.5305
593.83	99.1802
593.96	99.0496
594.08	99.2366
594.21	99.2210
594.33	99.1744
594.46	99.5606
594.58	99.5983
594.71	99.4951
594.83	99.0176
594.96	98.7845
595.08	98.7634
595.20	98.9252
595.33	98.5481
595.45	99.0474
595.58	99.3627
595.70	99.3713
595.83	99.1913
595.95	99.6610
596.08	99.8407
596.20	99.6516
596.33	99.6630
596.45	99.8813
596.58	99.7086
596.70	99.5579
596.83	99.4520
596.95	99.5313
597.08	99.3250
597.20	99.3278
597.32	99.2534
597.45	99.2954
597.57	99.1966
597.70	99.1660
597.82	99.3315
597.95	99.3221
598.07	99.3098
598.20	99.3299
598.32	99.2436
598.45	99.0135
598.57	99.1298
598.70	99.2179
598.82	98.9263
598.94	98.9111
599.07	99.0365
599.19	99.2640
599.32	98.9481
599.44	99.0966
599.57	99.2583
599.69	99.4583
599.82	98.9271
599.94	99.1532
600.07	99.3965
600.19	99.5037
600.31	99.0512
600.44	99.1959
600.56	99.2710
600.69	99.1322
600.81	99.0845
600.94	99.2678
601.06	99.2028
601.19	99.3722
601.31	99.1083
601.44	98.9734
601.56	98.9974
601.68	99.1781
601.81	98.7705
601.93	99.1525
602.06	99.4263
602.18	99.3161
602.31	99.1662
602.43	99.3367
602.56	99.1691
602.68	98.8260
602.80	99.1339
602.93	99.1871
603.05	99.1511
603.18	99.2559
603.30	99.4804
603.43	99.2726
603.55	99.3264
603.68	99.3675
603.80	99.2249
603.92	99.1038
604.05	99.3239
604.17	99.3086
604.30	99.2115
604.42	99.0837
604.55	99.1347
604.67	99.0083
604.79	98.9312
604.92	99.0529
605.04	99.1891
605.17	99.0960
605.29	98.8256
605.42	98.9489
605.54	98.8338
605.66	98.7607
605.79	98.6781
605.91	98.9448
606.04	98.7740
606.16	98.8339
606.29	99.0841
606.41	99.3548
606.53	99.2801
606.66	99.5419
606.78	99.6132
606.91	99.4188
607.03	99.3382
607.16	99.2171
607.28	98.9358
607.40	98.9263
607.53	98.9945
607.65	99.0308
607.78	98.9767
607.90	99.2540
608.03	99.2188
608.15	99.3459
608.27	99.3665
608.40	99.6671
608.52	99.3579
608.65	99.5488
608.77	99.2729
608.89	98.9259
609.02	98.9148
609.14	98.9765
609.27	98.8606
609.39	99.3074
609.52	99.6070
609.64	99.6290
609.76	99.6117
609.89	99.3352
610.01	99.0992
610.14	99.1396
610.26	98.9060
610.38	99.1857
610.51	99.4943
610.63	99.3672
610.76	99.2730
610.88	99.1499
611.01	98.9685
611.13	98.9608
611.25	99.0441
611.38	99.1393
611.50	99.3599
611.63	99.5231
611.75	99.4853
611.87	99.2836
612.00	99.1873
612.12	99.4705
612.25	99.4021
612.37	99.3998
612.49	99.3468
612.62	99.4180
612.74	99.1744
612.87	99.2379
612.99	99.0624
613.11	99.0460
613.24	98.9991
613.36	99.0666
613.49	99.0452
613.61	99.0789
613.73	99.4142
613.86	99.4664
613.98	99.3323
614.11	99.1196
614.23	99.0659
614.35	98.9663
614.48	98.8639
614.60	98.8142
614.72	98.9554
614.85	99.1469
614.97	99.2218
615.10	99.1917
615.22	99.2482
615.34	99.3733
615.47	99.3222
615.59	99.2221
615.72	99.4998
615.84	99.2238
615.96	99.1394
616.09	99.2952
616.21	99.1823
616.34	98.8979
616.46	99.2480
616.58	99.1675
616.71	98.9411
616.83	98.9299
616.95	99.0487
617.08	99.1323
617.20	99.2778
617.33	99.1504
617.45	99.3279
617.57	99.3444
617.70	99.1327
617.82	98.9290
617.95	99.1399
618.07	99.0057
618.19	98.8052
618.32	98.9945
618.44	99.2026
618.56	99.3698
618.69	99.2147
618.81	99.3789
618.94	99.2287
619.06	99.0336
619.18	98.9410
619.31	99.0121
619.43	98.8395
619.55	99.2228
619.68	99.5024
619.80	99.1423
619.92	99.1340
620.05	99.4489
620.17	99.3920
620.30	99.1303
620.42	99.3830
620.54	99.5731
620.67	99.4507
620.79	99.0070
620.91	99.0114
621.04	99.0609
621.16	99.2627
621.29	99.2393
621.41	99.4433
621.53	99.7146
621.66	99.5349
621.78	99.0121
621.90	99.1827
622.03	99.3005
622.15	99.1645
622.27	99.4306
622.40	99.6314
622.52	99.7052
622.64	99.6331
622.77	99.3207
622.89	99.2623
623.02	99.3485
623.14	99.0919
623.26	98.8906
623.39	99.2242
623.51	99.3530
623.63	99.1565
623.76	99.0805
623.88	99.2659
624.00	99.1377
624.13	99.0111
624.25	99.0829
624.37	98.9776
624.50	99.2415
624.62	99.5049
624.75	99.2916
624.87	99.5286
624.99	99.7736
625.12	99.0558
625.24	98.8010
625.36	98.9692
625.49	98.7079
625.61	98.4318
625.73	99.0207
625.86	99.0962
625.98	99.1964
626.10	99.2124
626.23	99.3558
626.35	99.2923
626.47	99.2692
626.60	99.1767
626.72	99.1644
626.84	99.3196
626.97	99.4052
627.09	99.1289
627.21	98.9836
627.34	99.3250
627.46	99.3216
627.58	98.9681
627.71	99.6136
627.83	99.5915
627.95	99.0133
628.08	98.9331
628.20	99.2733
628.32	98.9392
628.45	99.0161
628.57	99.2969
628.69	99.1479
628.82	99.1765
628.94	99.1915
629.06	99.1838
629.19	99.4529
629.31	99.5746
629.43	99.4094
629.56	99.1836
629.68	99.3258
629.80	99.2069
629.93	99.2151
630.05	99.1692
630.17	99.5166
630.30	99.3649
630.42	99.3977
630.54	99.5196
630.67	99.2196
630.79	99.0718
630.91	99.0841
631.04	99.0127
631.16	98.9782
631.28	99.4047
631.41	99.2468
631.53	99.1411
631.65	98.9533
631.78	98.7939
631.90	98.9817
632.02	98.9243
632.14	99.1154
632.27	99.3603
632.39	99.1578
632.51	98.9061
632.64	99.1447
632.76	99.1421
632.88	99.1556
633.01	99.3842
633.13	99.0019
633.25	99.1804
633.38	99.3034
633.50	99.3236
633.62	99.5564
633.75	99.8717
633.87	99.6920
633.99	99.7442
634.11	99.5034
634.24	99.3504
634.36	99.3894
634.48	99.0938
634.61	99.0584
634.73	99.2382
634.85	99.2697
634.98	99.3059
635.10	99.2161
635.22	99.0533
635.35	99.2725
635.47	99.2453
635.59	99.1466
635.71	99.3939
635.84	99.3135
635.96	99.2390
636.08	99.1724
636.21	99.1129
636.33	99.3234
636.45	99.5815
636.58	99.1605
636.70	99.2773
636.82	99.7054
636.94	99.5174
637.07	99.2660
637.19	99.4765
637.31	99.5727
637.44	99.2355
637.56	99.2698
637.68	99.3695
637.81	99.8161
637.93	99.5757
638.05	99.2255
638.17	99.3430
638.30	99.4391
638.42	99.0138
638.54	99.0850
638.67	99.3915
638.79	99.4384
638.91	99.3686
639.03	99.4395
639.16	99.4629
639.28	99.5657
639.40	99.1841
639.53	99.2047
639.65	99.2767
639.77	99.1663
639.89	99.0895
640.02	99.4781
640.14	99.1813
640.26	99.1341
640.39	99.2553
640.51	99.0788
640.63	98.8157
640.75	99.0986
640.88	99.0231
641.00	98.5338
641.12	98.8624
641.24	99.2150
641.37	98.7697
641.49	98.8546
641.61	99.2438
641.74	99.2358
641.86	98.8366
641.98	99.2102
642.10	99.2520
642.23	99.3007
642.35	99.0555
642.47	99.0516
642.60	99.1278
642.72	98.9861
642.84	98.8774
642.96	98.9194
643.09	99.1436
643.21	99.1643
643.33	99.1557
643.45	99.0771
643.58	99.2786
643.70	99.2139
643.82	99.1744
643.94	99.2727
644.07	99.4244
644.19	99.2278
644.31	99.3131
644.44	99.3083
644.56	99.2846
644.68	99.3629
644.80	99.5070
644.93	99.3401
645.05	99.3574
645.17	99.3835
645.29	99.3476
645.42	99.0775
645.54	99.0805
645.66	99.0902
645.78	98.9857
645.91	98.7786
646.03	99.1087
646.15	99.2690
646.27	99.2584
646.40	99.1166
646.52	99.3933
646.64	99.4538
646.76	99.2383
646.89	99.1239
647.01	99.1514
647.13	99.3642
647.25	99.2004
647.38	99.1194
647.50	99.3870
647.62	99.6927
647.74	99.2383
647.87	98.9885
647.99	99.1809
648.11	99.1745
648.23	98.8646
648.36	99.0519
648.48	99.3748
648.60	99.6043
648.72	99.1114
648.85	99.2638
648.97	99.3092
649.09	99.2554
649.21	99.0423
649.34	99.3485
649.46	99.4517
649.58	99.6226
649.70	99.4386
649.83	99.3724
649.95	99.2814
650.07	99.0650
650.19	98.6674
650.32	98.6344
650.44	98.6841
650.56	98.7300
650.68	98.8593
650.81	98.8490
650.93	99.0239
651.05	98.9258
651.17	99.0073
651.29	99.0112
651.42	99.3343
651.54	99.5367
651.66	99.5386
651.78	99.0589
651.91	99.0544
652.03	99.0660
652.15	98.8456
652.27	99.0518
652.40	99.5537
652.52	99.7380
652.64	99.2007
652.76	99.2087
652.88	99.2125
653.01	99.4081
653.13	99.1083
653.25	99.3973
653.37	99.4609
653.50	99.5640
653.62	99.0819
653.74	99.0618
653.86	99.3047
653.98	99.2977
654.11	99.1876
654.23	99.1483
654.35	99.2500
654.47	99.2530
654.60	99.4878
654.72	99.1206
654.84	99.3867
654.96	99.4754
655.08	99.3852
655.21	99.0501
655.33	99.3681
655.45	99.4595
655.57	99.2734
655.70	99.0161
655.82	99.0378
655.94	99.2897
656.06	99.0287
656.18	99.0034
656.31	99.2485
656.43	99.3197
656.55	99.0205
656.67	99.0285
656.79	99.3023
656.92	99.4205
657.04	99.1620
657.16	99.2877
657.28	99.3645
657.40	99.4310
657.53	99.2352
657.65	99.1613
657.77	99.1758
657.89	99.3687
658.01	99.0848
658.14	99.1378
658.26	99.6019
658.38	99.5154
658.50	99.0491
658.62	99.1818
658.75	99.1172
658.87	99.2133
658.99	99.2254
659.11	99.2640
659.23	99.3452
659.36	99.4193
659.48	99.2202
659.60	99.2403
659.72	99.4910
659.84	99.4117
659.97	98.9588
660.09	98.7362
660.21	98.8975
660.33	99.1742
660.45	99.0775
660.58	99.2772
660.70	99.6340
660.82	99.3209
660.94	98.8452
661.06	98.7440
661.19	99.0283
661.31	98.8548
661.43	98.7887
661.55	98.8626
661.67	99.1811
661.80	99.0920
661.92	99.0817
662.04	99.1471
662.16	99.4596
662.28	99.3336
662.40	99.2514
662.53	99.4139
662.65	99.3654
662.77	99.3994
662.89	99.5734
663.01	99.6870
663.14	99.4693
663.26	99.7798
663.38	99.5664
663.50	99.1624
663.62	99.1532
663.74	99.3043
663.87	99.0719
663.99	98.6994
664.11	98.9543
664.23	99.0994
664.35	98.9022
664.48	99.0636
664.60	99.6062
664.72	99.6291
664.84	99.2910
664.96	99.4327
665.08	99.2476
665.21	99.3959
665.33	99.2617
665.45	99.2903
665.57	99.2977
665.69	99.4278
665.81	99.2367
665.94	99.1325
666.06	99.1871
666.18	99.4300
666.30	99.2506
666.42	99.1046
666.54	99.3981
666.67	99.3304
666.79	99.0720
666.91	99.3353
667.03	99.3871
667.15	99.2685
667.27	99.4926
667.40	99.2044
667.52	99.0663
667.64	99.3173
667.76	99.1932
667.88	98.9553
668.00	99.1480
668.13	99.2008
668.25	98.9998
668.37	98.9091
668.49	99.2180
668.61	99.3521
668.73	99.2156
668.85	99.0465
668.98	99.3768
669.10	99.1745
669.22	98.8662
669.34	99.1477
669.46	99.2217
669.58	98.9711
669.71	99.1621
669.83	99.3543
669.95	99.1493
670.07	99.1107
670.19	99.3689
670.31	99.3211
670.43	99.2163
670.56	99.1968
670.68	99.4192
670.80	98.9370
670.92	98.8343
671.04	99.0963
671.16	99.2255
671.28	98.9528
671.41	99.3791
671.53	99.7090
671.65	99.3015
671.77	99.0341
671.89	99.2901
672.01	99.5319
672.13	99.2159
672.26	99.6957
672.38	99.7161
672.50	99.4703
672.62	98.9946
672.74	99.0498
672.86	98.8504
672.98	99.0713
673.11	98.9822
673.23	99.2511
673.35	99.2674
673.47	99.5181
673.59	99.3128
673.71	99.1002
673.83	98.9477
673.96	99.0962
674.08	98.7460
674.20	98.8066
674.32	99.2616
674.44	99.4051
674.56	99.0976
674.68	99.1283
674.80	99.4081
674.93	99.4779
675.05	99.3142
675.17	99.3772
675.29	99.5560
675.41	99.4146
675.53	99.3867
675.65	99.3136
675.77	99.4649
675.90	99.5884
676.02	99.2417
676.14	98.8655
676.26	99.0734
676.38	98.9627
676.50	98.8564
676.62	99.3749
676.74	99.5740
676.87	99.2435
676.99	99.1211
677.11	99.0347
677.23	98.7726
677.35	99.0429
677.47	99.3522
677.59	99.3635
677.71	99.3631
677.83	99.2856
677.96	99.2024
678.08	99.2954
678.20	99.5646
678.32	99.6881
678.44	99.5091
678.56	99.3971
678.68	99.4896
678.80	99.3906
678.93	99.2135
679.05	99.3062
679.17	99.4229
679.29	99.3017
679.41	99.3216
679.53	99.3491
679.65	99.5764
679.77	99.4861
679.89	99.1695
680.01	99.4197
680.14	99.6612
680.26	99.5087
680.38	99.4937
680.50	99.7452
680.62	99.4723
680.74	99.3531
680.86	99.5277
680.98	99.2062
681.10	99.2422
681.22	99.3982
681.35	99.5175
681.47	98.9463
681.59	99.3511
681.71	99.4120
681.83	99.0572
681.95	98.5717
682.07	99.0087
682.19	98.9457
682.31	98.5126
682.43	98.7798
682.56	99.0839
682.68	99.1692
682.80	99.0855
682.92	99.4438
683.04	99.4988
683.16	99.2992
683.28	99.2452
683.40	99.2049
683.52	99.1512
683.64	99.0561
683.76	99.2271
683.89	99.0172
684.01	99.0682
684.13	99.0757
684.25	98.9408
684.37	99.0082
684.49	98.9921
684.61	99.0716
684.73	99.1692
684.85	98.9516
684.97	98.9835
685.09	99.4626
685.21	99.1806
685.34	99.1656
685.46	99.4676
685.58	99.1789
685.70	99.1280
685.82	99.4231
685.94	99.3602
686.06	99.3312
686.18	99.5058
686.30	99.2500
686.42	99.3615
686.54	99.0638
686.66	99.1137
686.79	98.8481
686.91	98.8364
687.03	98.9436
687.15	99.3722
687.27	99.2002
687.39	99.5812
687.51	99.7224
687.63	99.4429
687.75	98.9907
687.87	99.2994
687.99	99.1244
688.11	98.8818
688.23	98.9837
688.35	99.3534
688.48	99.2632
688.60	99.2114
688.72	99.4085
688.84	99.4825
688.96	99.5543
689.08	99.0521
689.20	99.0730
689.32	99.1706
689.44	99.2557
689.56	99.0538
689.68	99.4640
689.80	99.5359
689.92	99.4370
690.04	99.2415
690.16	99.1883
690.28	99.4782
690.41	99.3705
690.53	99.0294
690.65	98.8094
690.77	98.8638
690.89	98.5916
691.01	98.7591
691.13	98.9735
691.25	99.2473
691.37	99.5553
691.49	99.1961
691.61	99.0357
691.73	99.3090
691.85	99.3387
691.97	98.7593
692.09	99.0387
692.21	98.9763
692.33	99.0527
692.45	98.9801
692.57	99.0657
692.70	99.3593
692.82	99.6102
692.94	99.3758
693.06	99.4937
693.18	99.8968
693.30	99.4649
693.42	99.3549
693.54	99.4059
693.66	99.5178
693.78	99.2393
693.90	99.4990
694.02	99.6914
694.14	99.6218
694.26	99.1600
694.38	99.1596
694.50	99.2369
694.62	99.1843
694.74	99.1112
694.86	99.2911
694.98	99.1966
695.10	99.2234
695.22	99.1278
695.34	99.3029
695.46	99.3173
695.58	99.5842
695.71	99.5597
695.83	99.2623
695.95	99.2971
696.07	99.4220
696.19	99.4772
696.31	99.1361
696.43	99.3793
696.55	99.4263
696.67	99.3942
696.79	99.3169
696.91	99.2038
697.03	99.2389
697.15	99.2506
697.27	98.9115
697.39	98.9130
697.51	99.2363
697.63	98.8834
697.75	98.7038
697.87	99.0667
697.99	98.9493
698.11	98.9284
698.23	99.2474
698.35	99.2660
698.47	99.4405
698.59	99.2676
698.71	99.4193
698.83	99.5300
698.95	99.5767
699.07	99.2410
699.19	99.5109
699.31	99.2827
699.43	99.2892
699.55	99.2962
699.67	99.4475
699.79	99.4350
699.91	99.5393
700.03	99.4397
700.15	99.3309
700.27	99.4818
700.39	99.3357
700.51	99.3193
700.63	99.1549
700.75	99.3593
700.87	99.0763
700.99	99.3719
701.11	99.3537
701.24	99.2427
701.36	99.0350
701.48	99.2173
701.60	98.7560
701.72	98.8824
701.84	99.3829
701.96	99.3421
702.08	99.1120
702.20	99.4669
702.32	99.5447
702.44	99.5177
702.56	99.6755
702.68	99.4922
702.80	99.3718
702.92	99.3043
703.04	99.1969
703.16	99.3874
703.28	99.7221
703.40	99.7229
703.52	99.5929
703.64	99.4632
703.76	99.2409
703.88	99.2191
704.00	99.0836
704.12	99.1517
704.24	99.1334
704.36	99.2292
704.48	99.0789
704.60	99.2480
704.72	98.9406
704.84	98.9500
704.96	99.0312
705.07	99.2565
705.19	99.1192
705.31	99.5282
705.43	99.4428
705.55	99.2120
705.67	99.2888
705.79	99.4701
705.91	99.1915
706.03	99.2026
706.15	99.3949
706.27	99.1759
706.39	99.2359
706.51	99.4489
706.63	99.5453
706.75	99.3256
706.87	99.4522
706.99	99.6531
707.11	99.6817
707.23	99.7182
707.35	99.6463
707.47	99.3966
707.59	99.1761
707.71	98.9864
707.83	98.9861
707.95	98.7715
708.07	98.8539
708.19	99.1119
708.31	99.1666
708.43	99.0715
708.55	99.4810
708.67	99.4932
708.79	99.2172
708.91	99.1371
709.03	99.3439
709.15	99.2506
709.27	99.3273
709.39	99.2241
709.51	99.3183
709.63	99.4883
709.75	99.4469
709.87	99.4758
709.99	99.6996
710.11	99.9757
710.23	99.4401
710.35	99.4788
710.47	99.4610
710.58	99.1559
710.70	98.8220
710.82	99.0091
710.94	98.8889
711.06	98.9628
711.18	98.8565
711.30	98.8153
711.42	98.8981
711.54	99.3640
711.66	99.2328
711.78	99.1847
711.90	99.4769
712.02	99.7402
712.14	99.1591
712.26	98.8960
712.38	99.3017
712.50	99.2373
712.62	99.0394
712.74	98.9148
712.86	99.3401
712.98	99.3216
713.10	99.0759
713.22	98.9000
713.34	99.2612
713.45	99.1877
713.57	99.0390
713.69	99.1359
713.81	99.4109
713.93	99.7978
714.05	99.5390
714.17	99.3659
714.29	99.5773
714.41	99.3733
714.53	99.0208
714.65	99.4073
714.77	99.2927
714.89	99.1714
715.01	99.2217
715.13	99.1873
715.25	99.1322
715.37	99.2674
715.49	99.1373
715.61	98.8571
715.72	98.9697
715.84	98.9089
715.96	98.8920
716.08	98.9270
716.20	99.2787
716.32	99.2579
716.44	99.2726
716.56	99.2157
716.68	99.2820
716.80	99.4285
716.92	99.5608
717.04	99.6105
717.16	100.0910
717.28	99.9942
717.40	99.7707
717.52	99.6069
717.63	99.5081
717.75	99.3687
717.87	99.5419
717.99	99.2531
718.11	99.0626
718.23	98.8926
718.35	98.9914
718.47	98.8694
718.59	99.2239
718.71	99.2953
718.83	99.7291
718.95	99.5305
719.07	99.5262
719.19	99.4063
719.30	99.4358
719.42	99.1357
719.54	99.1155
719.66	99.3525
719.78	99.3295
719.90	99.4490
720.02	99.3641
720.14	99.4085
720.26	99.2026
720.38	99.4984
720.50	99.2493
720.62	99.5804
720.74	99.4876
720.85	99.1809
720.97	99.1386
721.09	99.2157
721.21	98.9994
721.33	99.1609
721.45	99.4169
721.57	99.6008
721.69	99.4598
721.81	99.2367
721.93	99.3551
722.05	99.6691
722.16	99.3748
722.28	99.4305
722.40	99.4391
722.52	99.6075
722.64	99.3611
722.76	99.2480
722.88	99.6726
723.00	99.9126
723.12	100.0080
723.24	99.8229
723.36	99.7941
723.47	99.6253
723.59	99.5025
723.71	99.2793
723.83	99.4645
723.95	99.3754
724.07	98.9769
724.19	99.2792
724.31	99.4755
724.43	99.6844
724.55	99.2938
724.66	99.8134
724.78	99.7906
724.90	99.3722
725.02	99.0230
725.14	99.8639
725.26	99.6391
725.38	99.3038
725.50	99.2129
725.62	99.4815
725.74	99.6247
725.85	99.8438
725.97	98.7512
726.09	99.1892
726.21	99.4057
726.33	99.2215
726.45	99.1337
726.57	100.4838
726.69	100.1160
726.81	99.7994
726.92	99.5162
727.04	99.4537
727.16	99.3981
727.28	99.5378
727.40	99.0501
727.52	98.9043
727.64	98.8939
727.76	99.0795
727.88	99.0473
727.99	99.4593
728.11	99.7023
728.23	99.7938
728.35	99.5749
728.47	99.5049
728.59	99.7286
728.71	99.7395
728.83	99.4858
728.94	99.3169
729.06	99.3414
729.18	99.1429
729.30	98.8776
729.42	98.8425
729.54	99.0723
729.66	98.9468
729.78	98.8741
729.90	99.3418
730.01	99.4670
730.13	99.5606
730.25	99.5665
730.37	99.7344
730.49	99.5387
730.61	99.5333
730.73	99.4479
730.84	99.4929
730.96	99.6424
731.08	99.7779
731.20	99.3016
731.32	99.4233
731.44	99.5896
731.56	99.2019
731.68	98.9954
731.79	99.6215
731.91	99.3302
732.03	99.3274
732.15	99.5629
732.27	99.4557
732.39	99.6137
732.51	99.9977
732.62	99.7097
732.74	99.7750
732.86	100.1023
732.98	99.8691
733.10	99.3212
733.22	99.7907
733.34	99.5586
733.45	99.3672
733.57	99.2850
733.69	99.5731
733.81	99.3679
733.93	99.3973
734.05	99.4137
734.17	99.5492
734.28	99.8569
734.40	99.9252
734.52	99.6110
734.64	99.6590
734.76	99.8432
734.88	99.4565
735.00	98.9109
735.11	99.4456
735.23	99.6732
735.35	99.1846
735.47	99.2888
735.59	99.7633
735.71	99.4237
735.83	99.0374
735.94	99.2145
736.06	99.0886
736.18	98.9886
736.30	99.4478
736.42	99.5926
736.54	99.0368
736.65	99.1834
736.77	99.3543
736.89	98.5159
737.01	98.8162
737.13	99.5148
737.25	99.3672
737.36	99.1627
737.48	99.7988
737.60	99.4151
737.72	99.0230
737.84	99.1628
737.96	99.0716
738.08	99.2572
738.19	99.2517
738.31	99.6242
738.43	99.5255
738.55	99.8919
738.67	99.7044
738.79	99.6666
738.90	99.8358
739.02	100.0554
739.14	99.6698
739.26	99.4016
739.38	99.6933
739.50	99.5149
739.61	99.3523
739.73	99.4090
739.85	99.3066
739.97	99.4999
740.09	99.4520
740.20	99.3101
740.32	99.7419
740.44	100.0597
740.56	99.6591
740.68	99.5786
740.80	99.3953
740.91	98.9350
741.03	98.9433
741.15	98.6863
741.27	98.6678
741.39	98.6860
741.51	98.8360
741.62	98.8681
741.74	99.1901
741.86	99.2894
741.98	99.5516
742.10	99.5076
742.21	99.5694
742.33	99.1565
742.45	99.1841
742.57	99.0709
742.69	99.2363
742.80	99.1880
742.92	99.6456
743.04	99.2707
743.16	99.5904
743.28	99.5015
743.40	99.5568
743.51	99.4566
743.63	99.8203
743.75	99.5925
743.87	99.4975
743.99	99.3438
744.10	99.4455
744.22	99.2256
744.34	99.0308
744.46	99.2999
744.58	99.0526
744.69	98.9408
744.81	99.4234
744.93	99.3771
745.05	98.9117
745.17	99.2477
745.28	99.2800
745.40	99.0372
745.52	99.1836
745.64	99.5598
745.76	99.7219
745.87	99.4688
745.99	99.5079
746.11	99.6353
746.23	99.6682
746.35	98.8690
746.46	98.8749
746.58	98.7202
746.70	98.6958
746.82	98.7427
746.94	99.4750
747.05	99.8231
747.17	100.0724
747.29	99.5642
747.41	99.7176
747.53	99.6637
747.64	99.3256
747.76	98.8536
747.88	99.3348
748.00	99.1614
748.12	99.1160
748.23	99.1434
748.35	99.3115
748.47	99.5125
748.59	99.5314
748.70	99.5280
748.82	99.6776
748.94	99.6168
749.06	99.5399
749.18	99.1319
749.29	99.0474
749.41	99.1504
749.53	99.2334
749.65	99.4358
749.76	99.8522
749.88	99.6826
750.00	99.3495
750.12	99.3698
750.24	99.2081
750.35	98.7240
750.47	98.9492
750.59	98.8934
750.71	99.3084
750.82	99.3352
750.94	99.6671
751.06	99.6913
751.18	99.9962
751.30	99.5118
751.41	99.4333
751.53	99.4849
751.65	99.1639
751.77	98.9404
751.88	99.3890
752.00	99.0335
752.12	98.9879
752.24	99.2538
752.35	99.3177
752.47	98.8061
752.59	99.3773
752.71	99.0622
752.83	99.2949
752.94	99.3306
753.06	99.4659
753.18	99.1806
753.30	99.4091
753.41	99.0083
753.53	98.9090
753.65	99.1278
753.77	99.1367
753.88	99.0270
754.00	98.9729
754.12	99.3683
754.24	99.8041
754.35	99.6114
754.47	99.6875
754.59	100.0219
754.71	99.9724
754.82	99.2303
754.94	99.4703
755.06	99.4935
755.18	99.4796
755.29	99.1650
755.41	99.3975
755.53	99.4242
755.65	99.5040
755.76	99.0489
755.88	99.1349
756.00	99.4037
756.12	99.3150
756.23	98.7865
756.35	99.1141
756.47	99.4688
756.59	99.1222
756.70	99.2740
756.82	99.5752
756.94	99.4915
757.06	99.2679
757.17	99.5209
757.29	99.1611
757.41	99.3151
757.53	99.2987
757.64	99.0547
757.76	98.7738
757.88	98.9969
758.00	99.3509
758.11	99.4161
758.23	99.6410
758.35	99.5942
758.47	99.6373
758.58	99.2895
758.70	99.4887
758.82	99.2313
758.94	99.5489
759.05	99.5931
759.17	99.2760
759.29	99.1344
759.40	99.4245
759.52	99.0835
759.64	98.7910
759.76	99.1658
759.87	99.2355
759.99	99.4350
760.11	99.5562
760.23	99.6274
760.34	99.5810
760.46	99.5246
760.58	99.0761
760.70	99.0930
760.81	99.2415
760.93	99.4199
761.05	99.7978
761.16	100.1367
761.28	100.3973
761.40	100.0096
761.52	99.6906
761.63	99.3071
761.75	99.2449
761.87	98.9815
761.98	99.4061
762.10	99.4678
762.22	99.8036
762.34	99.6015
762.45	99.0688
762.57	99.2026
762.69	99.1829
762.81	99.2200
762.92	99.2212
763.04	99.3305
763.16	99.1754
763.27	99.2033
763.39	98.6884
763.51	98.8531
763.63	99.6197
763.74	99.6615
763.86	99.8448
763.98	99.8030
764.09	99.9488
764.21	99.6233
764.33	99.5793
764.44	99.4173
764.56	99.6464
764.68	99.6698
764.80	99.2111
764.91	99.2829
765.03	99.4087
765.15	99.5767
765.26	99.1083
765.38	99.5661
765.50	99.4463
765.62	99.3063
765.73	99.3217
765.85	99.4254
765.97	99.5480
766.08	99.6963
766.20	99.7005
766.32	99.2718
766.43	99.3800
766.55	99.2682
766.67	99.2029
766.79	99.3605
766.90	99.6725
767.02	99.8842
767.14	99.0662
767.25	98.9334
767.37	98.9289
767.49	98.5934
767.60	98.2812
767.72	99.1838
767.84	99.5044
767.95	99.3118
768.07	99.4605
768.19	99.5987
768.31	99.5001
768.42	99.2287
768.54	98.9450
768.66	98.8804
768.77	99.0605
768.89	99.0101
769.01	98.7926
769.12	99.1177
769.24	99.3279
769.36	99.2269
769.47	98.9252
769.59	99.0645
769.71	99.0881
769.82	99.2650
769.94	98.9958
770.06	99.4097
770.17	99.3702
770.29	99.0463
770.41	98.9591
770.53	99.1218
770.64	98.8885
770.76	98.8667
770.88	99.6298
770.99	99.5813
771.11	99.7282
771.23	99.5604
771.34	99.4243
771.46	99.0141
771.58	98.8506
771.69	98.5021
771.81	99.0038
771.93	98.8185
772.04	98.7947
772.16	98.6776
772.28	98.9143
772.39	98.4823
772.51	99.0834
772.63	99.1653
772.74	98.6689
772.86	98.8477
772.98	99.0850
773.09	98.7944
773.21	98.6184
773.33	99.4438
773.44	99.0361
773.56	98.7481
773.68	99.0625
773.79	99.2236
773.91	99.1601
774.03	99.0160
774.14	99.4229
774.26	99.6064
774.38	99.4263
774.49	99.1561
774.61	99.5226
774.73	99.3947
774.84	98.9093
774.96	99.1519
775.08	99.2010
775.19	99.0226
775.31	99.0160
775.43	99.3382
775.54	98.8211
775.66	99.2751
775.77	99.2122
775.89	99.1018
776.01	98.9547
776.12	99.7617
776.24	99.7003
776.36	99.6262
776.47	99.4869
776.59	99.7060
776.71	99.5922
776.82	99.4670
776.94	99.6228
777.06	100.2172
777.17	100.4015
777.29	100.0828
777.41	100.0066
777.52	99.8212
777.64	99.8946
777.75	99.7193
777.87	99.5543
777.99	99.4669
778.10	99.8737
778.22	99.6722
778.34	99.3320
778.45	99.5117
778.57	99.5591
778.69	98.9355
778.80	98.7906
778.92	99.0189
779.04	98.9565
779.15	98.7157
779.27	98.8874
779.38	99.0098
779.50	98.8718
779.62	99.3202
779.73	98.9376
779.85	99.4018
779.97	99.5703
780.08	99.3055
780.20	98.7624
780.31	99.3467
780.43	99.3244
780.55	98.7054
780.66	98.4254
780.78	98.9550
780.90	99.2273
781.01	99.2299
781.13	99.0850
781.25	99.8001
781.36	99.5023
781.48	98.7494
781.59	98.4191
781.71	99.1193
781.83	99.3759
781.94	98.9034
782.06	99.4491
782.18	100.3046
782.29	99.8217
782.41	99.3082
782.52	99.8655
782.64	100.0545
782.76	100.1025
782.87	99.8457
782.99	99.2500
783.10	99.3948
783.22	99.1603
783.34	98.3276
783.45	98.8011
783.57	99.0864
783.69	98.3195
783.80	98.1073
783.92	98.3343
784.03	98.1999
784.15	98.6473
784.27	99.1637
784.38	99.2821
784.50	99.4693
784.61	99.7901
784.73	100.0161
784.85	99.6903
784.96	99.6470
785.08	99.4787
785.19	99.6312
785.31	99.5071
785.43	99.4161
785.54	99.3896
785.66	99.0055
785.77	98.9990
785.89	98.6907
786.01	98.9162
786.12	98.6249
786.24	98.8925
786.35	98.6817
786.47	99.1634
786.59	99.2222
786.70	99.7830
786.82	99.7657
786.93	99.6885
787.05	99.4878
787.17	99.7839
787.28	99.4858
787.40	99.4650
787.51	99.8117
787.63	99.4317
787.75	98.9232
787.86	99.1753
787.98	99.3152
788.09	98.6775
788.21	98.8666
788.33	99.6325
788.44	99.3800
788.56	99.6439
788.67	99.8638
788.79	100.1696
788.91	100.0735
789.02	99.6946
789.14	99.2123
789.25	99.3944
789.37	99.0449
789.48	98.9195
789.60	99.2035
789.72	98.9929
789.83	99.2606
789.95	99.7331
790.06	99.1183
790.18	99.1177
790.30	99.3247
790.41	98.9374
790.53	98.6861
790.64	98.9533
790.76	99.1867
790.87	99.1358
790.99	99.1086
791.11	99.1025
791.22	98.8925
791.34	98.7789
791.45	99.0696
791.57	99.2893
791.68	98.7136
791.80	98.9102
791.92	99.2163
792.03	99.1767
792.15	99.0456
792.26	99.2643
792.38	99.2357
792.49	99.2171
792.61	99.4772
792.73	100.0678
792.84	102.0533
792.96	97.3127
793.07	97.7660
793.19	98.6125
793.30	98.7271
793.42	97.5159
793.54	101.3690
793.65	100.9879
793.77	100.2360
793.88	99.3486
794.00	98.9095
794.11	99.5435
794.23	99.6596
794.34	99.8421
794.46	99.0660
794.58	98.5587
794.69	99.5931
794.81	99.8364
794.92	98.4150
795.04	98.9340
795.15	99.2319
795.27	98.9463
795.39	98.5911
795.50	99.5965
795.62	100.0006
795.73	100.0453
795.85	99.2035
795.96	99.2744
796.08	99.2183
796.19	99.3731
796.31	99.4388
796.42	99.5531
796.54	99.6363
796.66	100.0148
796.77	99.1277
796.89	99.5586
797.00	100.0679
797.12	99.4445
797.23	98.7965
797.35	99.2799
797.46	98.6941
797.58	98.7423
797.69	98.9856
797.81	99.2997
797.93	99.5639
798.04	99.3188
798.16	99.4428
798.27	99.6474
798.39	99.8279
798.50	99.9564
798.62	99.6512
798.73	99.4969
798.85	99.3028
798.96	98.5413
799.08	98.2024
799.19	99.0033
799.31	99.4246
799.43	99.4447
799.54	99.4271
799.66	99.7512
799.77	100.3757
799.89	99.8496
800.00	99.2303
800.12	99.0764
800.23	99.3252
800.35	98.9482
800.46	98.5543
800.58	99.0509
800.69	99.7980
800.81	98.9575
800.92	98.9258
801.04	99.6576
801.16	99.8244
801.27	99.5428
801.39	99.9606
801.50	99.2751
801.62	98.6665
801.73	99.1405
801.85	99.1893
801.96	98.8362
802.08	99.8891
802.19	100.2998
802.31	99.1955
802.42	99.0398
802.54	99.8382
802.65	98.9339
802.77	99.5252
802.88	99.4737
803.00	100.0019
803.11	99.7953
803.23	99.9335
803.34	99.5612
803.46	99.7836
803.57	99.8934
803.69	99.3048
803.80	99.6105
803.92	99.3261
804.03	99.4024
804.15	98.8715
804.26	99.6235
804.38	99.2386
804.50	98.9345
804.61	99.1171
804.73	99.9122
804.84	99.6476
804.96	100.0230
805.07	100.1830
805.19	99.9176
805.30	99.3261
805.42	99.0631
805.53	99.0304
805.65	99.3906
805.76	99.6818
805.88	99.5748
805.99	100.0814
806.11	100.0699
806.22	99.9697
806.34	100.1893
806.45	99.8831
806.57	99.8924
806.68	99.5358
806.80	99.1082
806.91	99.3834
807.03	100.0146
807.14	99.9167
807.26	99.8274
807.37	100.5795
807.49	99.8453
807.60	99.0515
807.72	99.0935
807.83	99.6077
807.95	99.0744
808.06	98.9931
808.17	99.7396
808.29	99.2926
808.40	98.7489
808.52	98.4075
808.63	98.9160
808.75	98.3529
808.86	98.4691
808.98	98.5244
809.09	99.0115
809.21	98.6563
809.32	99.6431
809.44	99.4551
809.55	100.0328
809.67	99.4443
809.78	98.9951
809.90	98.5877
810.01	98.0304
810.13	98.0578
810.24	98.8662
810.36	99.5303
810.47	98.9484
810.59	98.9738
810.70	99.0553
810.82	99.0162
810.93	99.2359
811.05	99.7938
811.16	100.2454
811.27	98.9750
811.39	99.1323
811.50	99.8607
811.62	99.3150
811.73	99.2015
811.85	99.8220
811.96	99.4406
812.08	98.7141
812.19	99.2119
812.31	100.1914
812.42	100.4012
812.54	99.9479
812.65	99.7670
812.77	99.5421
812.88	98.8766
813.00	99.5027
813.11	100.0366
813.22	100.3484
813.34	99.5287
813.45	98.7555
813.57	98.6713
813.68	99.4477
813.80	99.7141
813.91	99.3451
814.03	100.5250
814.14	99.7944
814.26	98.6192
814.37	98.4333
814.49	99.6481
814.60	98.8548
814.71	99.4533
814.83	99.5813
814.94	98.7622
815.06	99.2569
815.17	100.4624
815.29	98.6763
815.40	98.9604
815.52	99.9635
815.63	99.1762
815.75	99.3706
815.86	100.7840
815.97	100.1466
816.09	99.3071
816.20	100.9957
816.32	99.9354
816.43	100.3939
816.55	99.4790
816.66	100.3144
816.78	99.1704
816.89	99.9947
817.00	100.2854
817.12	100.7485
817.23	100.2216
817.35	101.1566
817.46	98.9725
817.58	98.6399
817.69	99.4818
817.81	99.2440
817.92	97.8214
818.03	100.0353
818.15	100.1968
818.26	100.1311
818.38	104.9903
818.49	111.7497
818.61	92.4027
818.72	94.2919
818.83	101.6347
818.95	98.3705
819.06	90.8286
819.18	111.3606
819.29	108.7306
819.41	100.8790
819.52	99.5410
819.64	101.4971
819.75	101.3384
819.86	99.9094
819.98	100.4199
820.09	101.4391
820.21	99.1308
820.32	96.9516
820.44	99.6214
820.55	99.1242
820.66	98.0878
820.78	98.5141
820.89	100.6783
821.01	99.2017
821.12	101.3807
821.23	99.0167
821.35	99.1220
821.46	100.6774
821.58	101.9945
821.69	98.3790
821.81	99.7058
821.92	98.6347
822.03	98.9944
822.15	98.8823
822.26	99.3602
822.38	99.8150
822.49	100.9269
822.61	97.8426
822.72	96.8886
822.83	99.9268
822.95	98.7352
823.06	96.8685
823.18	97.5657
823.29	98.9974
823.40	101.4458
823.52	97.8935
823.63	100.3043
823.75	104.5259
823.86	99.5408
823.97	97.5902
824.09	102.5149
824.20	103.8660
824.32	99.9637
824.43	99.0122
824.55	99.6402
824.66	101.4390
824.77	97.0982
824.89	98.1656
825.00	101.3665
825.12	100.7475
825.23	102.3267
825.34	100.7781
825.46	100.1515
825.57	106.1176
825.69	103.0397
825.80	102.2156
825.91	103.2564
826.03	105.4902
826.14	99.0196
826.26	99.3665
826.37	95.9627
826.48	104.5994
826.60	100.8179
826.71	101.3183
826.83	93.3906
826.94	90.2839
827.05	88.1256
827.17	90.3727
827.28	94.4989
827.39	100.2532
827.51	104.2434
827.62	103.1103
827.74	109.6818
827.85	108.9463
827.96	92.9100
828.08	104.4421
828.19	134.9565
828.31	114.7081
828.42	96.8515
828.53	108.2302
828.65	12.3709
828.76	0.0000
828.87	0.0000
828.99	0.0000
