Wavelength (nm)	Reflectance (%)
377.35	0.0000
377.48	0.0000
377.62	0.0000
377.75	101.2766
377.88	0.0000
378.02	200.0000
378.15	200.0000
378.28	200.0000
378.41	200.0000
378.55	130.2353
378.68	0.0000
378.81	200.0000
378.95	200.0000
379.08	200.0000
379.21	200.0000
379.35	61.0323
379.48	181.8140
379.61	200.0000
379.74	141.4545
379.88	62.4634
380.01	96.7216
380.14	126.6515
380.28	81.5681
380.41	80.7242
380.54	165.9399
380.68	154.1837
380.81	103.6964
380.94	87.4751
381.07	112.3718
381.21	116.2807
381.34	63.0469
381.47	85.6502
381.61	144.7034
381.74	126.7029
381.87	53.8025
382.00	120.0149
382.14	146.3438
382.27	82.0700
382.40	57.5500
382.54	105.0432
382.67	112.9919
382.80	78.6622
382.93	105.5509
383.07	115.6296
383.20	107.3260
383.33	132.9085
383.47	92.8012
383.60	91.1111
383.73	119.6790
383.86	123.0846
384.00	82.6172
384.13	116.1543
384.26	128.1654
384.40	99.9269
384.53	83.8120
384.66	99.8036
384.79	118.6060
384.93	105.6888
385.06	83.5550
385.19	87.5202
385.33	96.3845
385.46	73.0014
385.59	87.5972
385.72	128.8737
385.86	120.9678
385.99	110.9792
386.12	112.1190
386.25	80.8285
386.39	84.6649
386.52	99.4406
386.65	95.3872
386.79	76.9023
386.92	113.2489
387.05	122.3713
387.18	96.4048
387.32	87.2198
387.45	127.0499
387.58	118.0406
387.71	99.5674
387.85	104.7643
387.98	102.2114
388.11	102.7004
388.25	90.9624
388.38	79.5000
388.51	92.8021
388.64	117.2723
388.78	120.0588
388.91	94.8877
389.04	120.4745
389.17	112.7158
389.31	79.3191
389.44	70.5359
389.57	102.2585
389.70	97.6057
389.84	104.1511
389.97	108.7713
390.10	114.5420
390.24	117.1482
390.37	93.6625
390.50	89.3517
390.63	94.0769
390.77	85.4234
390.90	87.7412
391.03	106.5525
391.16	100.4719
391.30	102.9956
391.43	117.6835
391.56	95.1343
391.69	97.4557
391.83	114.3090
391.96	91.9143
392.09	81.6155
392.22	110.2893
392.36	115.4908
392.49	86.8646
392.62	91.2664
392.75	99.6684
392.89	94.6275
393.02	96.9843
393.15	84.8793
393.28	105.2750
393.42	96.1313
393.55	96.5953
393.68	85.8844
393.81	109.3458
393.95	109.4426
394.08	106.4821
394.21	98.4846
394.34	98.2658
394.48	102.1091
394.61	93.8069
394.74	101.0980
394.87	99.8101
395.01	119.5644
395.14	105.2115
395.27	95.3671
395.40	102.6499
395.54	108.4878
395.67	85.4111
395.80	95.7713
395.93	108.8736
396.07	106.3280
396.20	100.7260
396.33	102.0889
396.46	105.2027
396.59	113.2174
396.73	96.3426
396.86	96.8078
396.99	114.7826
397.12	133.1271
397.26	84.6536
397.39	87.7414
397.52	105.0067
397.65	98.3502
397.79	68.5580
397.92	112.2603
398.05	125.5570
398.18	103.3619
398.32	92.8255
398.45	100.6992
398.58	103.7628
398.71	98.3537
398.84	97.2271
398.98	97.3534
399.11	102.8505
399.24	101.8267
399.37	101.3775
399.51	105.8611
399.64	106.5659
399.77	102.7267
399.90	105.4750
400.03	95.4663
400.17	89.6055
400.30	94.1677
400.43	93.3515
400.56	87.0483
400.70	103.0116
400.83	109.8051
400.96	108.1367
401.09	104.1852
401.23	106.8272
401.36	100.4404
401.49	100.6473
401.62	102.4271
401.75	107.3277
401.89	100.7727
402.02	97.6535
402.15	96.6667
402.28	98.9047
402.41	104.3634
402.55	95.2028
402.68	93.4056
402.81	101.8326
402.94	106.7150
403.08	95.6486
403.21	100.1403
403.34	110.6070
403.47	100.4880
403.60	87.9189
403.74	98.5865
403.87	103.9601
404.00	103.2139
404.13	111.3458
404.26	111.8011
404.40	107.0695
404.53	113.4429
404.66	101.3325
404.79	94.8231
404.93	107.3753
405.06	104.7570
405.19	95.4461
405.32	98.0468
405.45	105.8200
405.59	106.3735
405.72	82.6269
405.85	92.3326
405.98	104.5281
406.11	98.6410
406.25	82.8188
406.38	105.4133
406.51	103.3160
406.64	98.1287
406.77	93.8046
406.91	102.8164
407.04	104.6926
407.17	102.2582
407.30	91.3535
407.43	91.2166
407.57	96.1452
407.70	98.2504
407.83	101.3447
407.96	100.0469
408.09	110.0245
408.23	112.3398
408.36	95.1481
408.49	90.5980
408.62	108.1399
408.75	101.7499
408.89	94.9255
409.02	101.8882
409.15	101.5624
409.28	103.4186
409.41	90.9227
409.55	89.6182
409.68	102.7454
409.81	100.2444
409.94	90.3527
410.07	106.7382
410.20	108.4309
410.34	102.3322
410.47	100.2876
410.60	105.2557
410.73	100.0373
410.86	101.3354
411.00	101.7163
411.13	104.1157
411.26	96.1073
411.39	97.1126
411.52	94.6440
411.66	97.1415
411.79	96.3175
411.92	102.5295
412.05	102.8008
412.18	98.1909
412.31	92.1500
412.45	101.4980
412.58	100.1929
412.71	91.8865
412.84	99.9131
412.97	106.8912
413.11	99.2790
413.24	90.0553
413.37	102.1945
413.50	105.1178
413.63	99.7406
413.76	99.4900
413.90	111.1950
414.03	108.1406
414.16	103.3197
414.29	95.3520
414.42	100.2745
414.56	97.4851
414.69	96.7000
414.82	93.9323
414.95	102.5527
415.08	95.4273
415.21	103.8080
415.35	101.0330
415.48	97.5753
415.61	108.0162
415.74	112.3221
415.87	90.9841
416.00	95.4706
416.14	106.8173
416.27	98.8901
416.40	95.5027
416.53	108.3466
416.66	112.6435
416.79	103.5038
416.93	101.4719
417.06	103.8876
417.19	104.5524
417.32	104.0154
417.45	99.0026
417.58	99.7330
417.72	99.5689
417.85	93.8880
417.98	93.0558
418.11	101.6229
418.24	101.3069
418.37	102.2688
418.51	99.9175
418.64	95.8784
418.77	100.9740
418.90	101.0704
419.03	93.7683
419.16	104.2306
419.29	110.9870
419.43	92.9866
419.56	91.1089
419.69	101.9772
419.82	99.8168
419.95	94.2145
420.08	98.6635
420.22	98.5002
420.35	94.5906
420.48	99.2811
420.61	93.6998
420.74	103.6823
420.87	108.4877
421.00	104.2270
421.14	92.4935
421.27	97.1644
421.40	96.2720
421.53	95.4902
421.66	99.5497
421.79	104.8500
421.93	109.1845
422.06	104.3580
422.19	101.1127
422.32	101.3709
422.45	105.1572
422.58	98.0328
422.71	95.7588
422.85	100.2928
422.98	101.5740
423.11	98.9293
423.24	100.9682
423.37	103.0909
423.50	100.6411
423.63	99.8975
423.77	97.7175
423.90	94.5946
424.03	96.6761
424.16	100.6151
424.29	101.4627
424.42	105.1716
424.55	106.7022
424.69	106.2904
424.82	106.7742
424.95	101.3739
425.08	99.6425
425.21	102.0182
425.34	101.1658
425.47	100.0659
425.60	103.9347
425.74	103.5206
425.87	101.6000
426.00	103.9498
426.13	102.5083
426.26	102.1800
426.39	97.4956
426.52	99.6081
426.66	103.4599
426.79	94.8791
426.92	91.1000
427.05	98.0553
427.18	99.1041
427.31	95.8628
427.44	101.0048
427.57	106.9211
427.71	104.6564
427.84	98.4151
427.97	95.5903
428.10	101.3304
428.23	106.8066
428.36	99.5120
428.49	98.1902
428.62	101.5476
428.76	103.0100
428.89	95.1200
429.02	95.8029
429.15	102.8842
429.28	102.4286
429.41	98.5941
429.54	95.8443
429.67	102.6764
429.81	104.3383
429.94	99.1693
430.07	92.0510
430.20	96.1765
430.33	96.4438
430.46	93.3341
430.59	99.1575
430.72	103.8642
430.85	105.1394
430.99	101.7585
431.12	98.4735
431.25	99.2630
431.38	102.8150
431.51	95.8829
431.64	96.0917
431.77	101.2872
431.90	102.0951
432.03	98.9747
432.17	101.4860
432.30	105.0912
432.43	102.8675
432.56	99.3139
432.69	96.7019
432.82	99.0055
432.95	98.0241
433.08	98.9540
433.21	99.0759
433.35	103.6416
433.48	102.1971
433.61	103.2676
433.74	100.2338
433.87	102.7290
434.00	101.1310
434.13	100.8085
434.26	97.9831
434.39	101.7697
434.53	100.1612
434.66	101.7992
434.79	97.7069
434.92	101.6999
435.05	101.4374
435.18	96.3184
435.31	94.2461
435.44	99.6867
435.57	100.7598
435.70	97.7618
435.84	95.0576
435.97	97.1397
436.10	98.2114
436.23	94.0681
436.36	94.1698
436.49	100.6465
436.62	97.7020
436.75	95.5787
436.88	96.3441
437.01	100.4814
437.14	100.8210
437.28	97.5678
437.41	94.9792
437.54	97.8629
437.67	100.0066
437.80	91.9943
437.93	93.4155
438.06	100.5610
438.19	100.3695
438.32	95.3099
438.45	99.2768
438.58	101.5073
438.72	99.9586
438.85	97.8019
438.98	97.2986
439.11	99.9807
439.24	100.3391
439.37	96.0622
439.50	97.4465
439.63	100.2084
439.76	101.5114
439.89	101.3318
440.02	100.2700
440.15	100.2559
440.29	101.8824
440.42	99.2753
440.55	95.5682
440.68	101.4189
440.81	102.4315
440.94	95.5821
441.07	96.4345
441.20	101.7914
441.33	98.9178
441.46	96.4934
441.59	100.7779
441.72	102.0750
441.85	100.3373
441.99	97.4138
442.12	96.7239
442.25	96.8039
442.38	99.0457
442.51	98.8158
442.64	100.8101
442.77	102.5120
442.90	103.1552
443.03	100.3731
443.16	97.5013
443.29	99.2420
443.42	97.7690
443.55	97.6295
443.68	97.9972
443.82	101.8999
443.95	99.1982
444.08	99.9747
444.21	98.4996
444.34	98.3163
444.47	97.4219
444.60	99.9520
444.73	97.5779
444.86	98.2028
444.99	99.0228
445.12	100.6214
445.25	98.2359
445.38	99.2707
445.51	100.9175
445.64	104.1749
445.78	97.7802
445.91	97.1106
446.04	101.9118
446.17	99.1042
446.30	94.4315
446.43	101.1764
446.56	103.7621
446.69	97.9730
446.82	96.7988
446.95	98.5293
447.08	98.8092
447.21	96.8292
447.34	97.6702
447.47	100.0453
447.60	97.5199
447.73	96.5101
447.86	98.3284
447.99	98.9329
448.13	100.4747
448.26	101.3350
448.39	99.7505
448.52	100.8633
448.65	101.8351
448.78	99.1425
448.91	101.6690
449.04	101.5110
449.17	99.7760
449.30	100.3116
449.43	98.6787
449.56	96.9335
449.69	100.7674
449.82	99.4354
449.95	97.0210
450.08	99.9105
450.21	100.8972
450.34	97.3956
450.47	99.6678
450.60	102.5824
450.73	104.1872
450.87	103.0730
451.00	98.5419
451.13	99.7268
451.26	98.1329
451.39	96.3896
451.52	96.6449
451.65	102.3761
451.78	103.1078
451.91	100.7337
452.04	98.4647
452.17	100.8828
452.30	101.2176
452.43	97.0881
452.56	101.8185
452.69	101.5874
452.82	99.6070
452.95	100.7313
453.08	99.9832
453.21	99.1083
453.34	101.2045
453.47	98.1221
453.60	96.0876
453.73	98.8018
453.86	97.2536
453.99	98.0286
454.12	100.2321
454.25	101.4777
454.38	100.3712
454.52	100.5974
454.65	100.8970
454.78	100.5431
454.91	99.8652
455.04	101.6871
455.17	99.0111
455.30	99.0466
455.43	101.7669
455.56	100.2208
455.69	98.0009
455.82	101.8762
455.95	101.4922
456.08	100.3175
456.21	101.9750
456.34	102.2010
456.47	101.3552
456.60	101.1698
456.73	99.0503
456.86	98.9213
456.99	100.2399
457.12	98.2465
457.25	97.1022
457.38	97.8837
457.51	97.5581
457.64	96.7498
457.77	98.1666
457.90	98.7190
458.03	98.9694
458.16	98.3250
458.29	99.2836
458.42	100.1196
458.55	101.1805
458.68	99.6466
458.81	96.4990
458.94	98.0456
459.07	99.2827
459.20	97.8014
459.33	96.6049
459.46	99.5452
459.59	99.3577
459.72	95.8115
459.85	95.5325
459.98	98.7714
460.11	100.7839
460.24	97.3124
460.37	98.5913
460.50	100.4819
460.63	100.4754
460.76	97.6952
460.89	98.8313
461.02	100.4201
461.15	100.0284
461.28	97.1575
461.41	99.4130
461.54	100.1682
461.67	98.0932
461.80	97.8908
461.93	98.9659
462.06	98.4221
462.19	99.2541
462.32	98.3952
462.45	98.2221
462.58	98.7533
462.71	99.1783
462.84	97.4841
462.97	98.2503
463.10	97.4331
463.23	97.9962
463.36	98.8544
463.49	99.0487
463.62	99.7173
463.75	100.7011
463.88	102.5453
464.01	98.3513
464.14	99.4445
464.27	100.5990
464.40	99.4407
464.53	97.4751
464.66	99.0095
464.79	99.0792
464.92	97.9526
465.05	98.3566
465.18	98.5739
465.31	100.1697
465.44	100.1730
465.57	97.5600
465.70	98.3298
465.83	100.0553
465.96	98.3309
466.09	97.0246
466.22	100.3794
466.35	100.5780
466.48	99.1913
466.61	99.5614
466.74	99.3931
466.87	98.4635
467.00	97.1249
467.13	98.1212
467.26	99.9217
467.39	100.8489
467.52	99.4102
467.65	100.5009
467.78	99.2054
467.91	97.7727
468.04	97.7099
468.17	100.1774
468.30	100.3567
468.43	100.0148
468.56	99.4224
468.69	100.6167
468.82	100.0070
468.95	99.9102
469.08	101.0140
469.21	100.3757
469.34	98.1756
469.47	99.2401
469.60	99.1515
469.73	97.9415
469.86	100.8521
469.99	102.1440
470.11	99.9714
470.24	99.6475
470.37	101.1015
470.50	100.6539
470.63	99.7789
470.76	99.3267
470.89	100.8701
471.02	100.9902
471.15	98.3105
471.28	97.6533
471.41	99.6689
471.54	99.6789
471.67	97.4445
471.80	98.5162
471.93	100.1182
472.06	100.8046
472.19	97.7822
472.32	98.3053
472.45	99.1211
472.58	98.5516
472.71	97.5198
472.84	99.6854
472.97	99.3691
473.10	100.0397
473.23	99.0874
473.36	98.5679
473.49	98.1027
473.62	98.4939
473.74	98.0709
473.87	99.8211
474.00	99.8237
474.13	99.2168
474.26	99.8134
474.39	99.4363
474.52	97.9805
474.65	99.3631
474.78	100.3595
474.91	98.6838
475.04	98.6476
475.17	99.7364
475.30	98.3305
475.43	98.1127
475.56	99.6175
475.69	100.3897
475.82	99.1626
475.95	99.8527
476.08	99.7886
476.21	99.7622
476.34	98.2397
476.46	99.5561
476.59	99.4947
476.72	99.9828
476.85	98.7870
476.98	98.8522
477.11	99.1495
477.24	98.4861
477.37	97.2801
477.50	98.6015
477.63	99.4109
477.76	98.9217
477.89	98.8479
478.02	99.1138
478.15	99.1586
478.28	99.6690
478.41	98.6272
478.54	99.4242
478.66	99.9662
478.79	99.9767
478.92	99.3001
479.05	100.2422
479.18	99.5079
479.31	99.5468
479.44	99.2821
479.57	99.1448
479.70	99.7428
479.83	100.5434
479.96	98.8682
480.09	98.4656
480.22	98.9086
480.35	98.3997
480.48	98.2144
480.60	98.9477
480.73	99.5839
480.86	99.6864
480.99	99.3802
481.12	98.3351
481.25	99.5978
481.38	99.5377
481.51	98.5793
481.64	98.6336
481.77	99.6882
481.90	99.2918
482.03	98.5410
482.16	99.3792
482.29	99.5971
482.41	99.9464
482.54	99.9976
482.67	100.4172
482.80	100.7818
482.93	100.1342
483.06	99.3418
483.19	99.3890
483.32	99.6871
483.45	98.7962
483.58	98.5884
483.71	98.4294
483.84	98.1106
483.97	97.9344
484.09	98.1180
484.22	98.9142
484.35	99.1405
484.48	98.9164
484.61	98.9293
484.74	99.2435
484.87	98.9142
485.00	99.2522
485.13	99.3617
485.26	99.8389
485.39	98.9491
485.52	98.7262
485.64	98.1584
485.77	98.6585
485.90	98.2715
486.03	99.2996
486.16	99.4328
486.29	99.6155
486.42	99.5031
486.55	99.0190
486.68	98.3734
486.81	98.8533
486.94	98.6123
487.06	97.9179
487.19	98.3316
487.32	98.8133
487.45	98.4445
487.58	99.2653
487.71	99.7088
487.84	99.5352
487.97	99.4082
488.10	99.9697
488.23	99.1740
488.35	99.3590
488.48	99.6736
488.61	99.7744
488.74	99.3561
488.87	99.0023
489.00	99.0220
489.13	99.2106
489.26	99.0946
489.39	99.0113
489.52	99.6634
489.64	99.3246
489.77	98.9857
489.90	98.6483
490.03	98.7066
490.16	98.8425
490.29	98.4290
490.42	98.6857
490.55	98.7823
490.68	99.3034
490.81	98.5590
490.93	99.0536
491.06	99.0131
491.19	98.8834
491.32	98.7119
491.45	99.2176
491.58	99.3788
491.71	99.5736
491.84	99.1977
491.97	98.7711
492.09	99.1238
492.22	98.7528
492.35	98.5706
492.48	99.4226
492.61	99.2634
492.74	98.9491
492.87	99.2989
493.00	98.8390
493.12	98.5217
493.25	99.0160
493.38	99.5097
493.51	99.1950
493.64	99.4044
493.77	99.4985
493.90	98.8626
494.03	98.2154
494.16	98.5706
494.28	99.0232
494.41	98.3728
494.54	98.5400
494.67	99.2780
494.80	99.0375
494.93	98.7296
495.06	99.5110
495.19	100.0250
495.31	99.8426
495.44	99.7695
495.57	99.9791
495.70	100.2320
495.83	100.1511
495.96	99.3035
496.09	98.9876
496.22	99.3904
496.34	99.0911
496.47	98.4392
496.60	98.5486
496.73	99.1992
496.86	98.2918
496.99	98.3683
497.12	98.7311
497.24	98.9415
497.37	98.9435
497.50	99.5180
497.63	98.9000
497.76	98.6266
497.89	99.5661
498.02	99.4961
498.15	99.0822
498.27	99.2836
498.40	99.5883
498.53	98.8255
498.66	99.1959
498.79	99.2845
498.92	99.3814
499.05	99.5692
499.17	99.0401
499.30	98.5904
499.43	99.0897
499.56	99.0308
499.69	98.8551
499.82	99.6169
499.95	99.8671
500.07	99.6091
500.20	99.0635
500.33	99.2517
500.46	99.4647
500.59	99.2650
500.72	98.9053
500.85	99.3462
500.97	99.6444
501.10	99.3192
501.23	98.6022
501.36	98.5433
501.49	98.9556
501.62	98.1199
501.75	98.5135
501.87	99.0896
502.00	99.1938
502.13	99.2192
502.26	99.5541
502.39	99.4145
502.52	99.4456
502.64	99.1686
502.77	98.9940
502.90	99.3640
503.03	99.1545
503.16	98.6526
503.29	99.0105
503.42	99.2393
503.54	99.1374
503.67	98.5655
503.80	99.5611
503.93	99.7284
504.06	99.0961
504.19	98.9717
504.31	99.2920
504.44	98.8158
504.57	99.0943
504.70	99.4231
504.83	99.4834
504.96	99.7168
505.08	99.1497
505.21	98.7564
505.34	98.9902
505.47	99.0360
505.60	99.1335
505.73	99.1533
505.85	99.4881
505.98	99.7723
506.11	99.6680
506.24	99.3691
506.37	99.4535
506.50	99.2633
506.62	98.8370
506.75	98.4176
506.88	98.7377
507.01	99.0247
507.14	98.9298
507.27	98.9060
507.39	99.3481
507.52	98.7460
507.65	99.0704
507.78	98.8097
507.91	98.6872
508.04	98.5653
508.16	98.9987
508.29	99.2692
508.42	99.7301
508.55	99.2830
508.68	99.3701
508.81	99.4232
508.93	98.9037
509.06	98.6096
509.19	99.3246
509.32	99.0654
509.45	99.1216
509.57	99.2166
509.70	99.3964
509.83	99.2145
509.96	99.4433
510.09	99.3637
510.22	99.5145
510.34	99.0187
510.47	99.1467
510.60	99.1401
510.73	99.0796
510.86	99.0900
510.98	99.3316
511.11	99.2027
511.24	99.3698
511.37	99.4434
511.50	99.2862
511.63	99.4502
511.75	99.3781
511.88	99.1788
512.01	99.0592
512.14	99.1060
512.27	99.1187
512.39	99.0695
512.52	99.0953
512.65	99.1528
512.78	98.8908
512.91	98.6446
513.03	98.5334
513.16	98.5843
513.29	98.4401
513.42	98.3862
513.55	98.8646
513.67	99.3350
513.80	99.1245
513.93	98.9872
514.06	99.2600
514.19	98.8237
514.31	98.8295
514.44	98.8208
514.57	98.6533
514.70	98.8548
514.83	99.1182
514.95	98.8024
515.08	98.8606
515.21	99.2100
515.34	99.2196
515.47	99.0723
515.59	99.1013
515.72	98.7646
515.85	98.9549
515.98	98.6698
516.11	98.5331
516.23	98.7748
516.36	99.3941
516.49	99.0323
516.62	98.7981
516.75	99.4191
516.87	99.3087
517.00	98.6239
517.13	98.8212
517.26	99.6711
517.39	99.1811
517.51	98.6490
517.64	99.3529
517.77	99.2618
517.90	98.8202
518.02	99.2072
518.15	99.5216
518.28	99.1924
518.41	99.1678
518.54	99.1151
518.66	98.9586
518.79	99.0518
518.92	98.9819
519.05	98.7846
519.18	98.8327
519.30	98.7613
519.43	98.9155
519.56	98.8811
519.69	99.4045
519.81	99.6119
519.94	99.4917
520.07	99.3118
520.20	99.3843
520.33	99.2498
520.45	98.9887
520.58	98.8499
520.71	98.8786
520.84	99.0791
520.96	99.0851
521.09	98.8088
521.22	98.7673
521.35	99.0436
521.48	99.1145
521.60	98.9277
521.73	98.6375
521.86	98.9785
521.99	98.9715
522.11	98.6236
522.24	98.8728
522.37	98.9933
522.50	99.2594
522.62	99.0693
522.75	99.3783
522.88	99.2134
523.01	99.4788
523.14	98.8871
523.26	99.2175
523.39	98.8085
523.52	98.8530
523.65	99.0476
523.77	99.2297
523.90	98.8116
524.03	99.0614
524.16	99.1175
524.28	98.9895
524.41	99.3435
524.54	99.5298
524.67	99.3297
524.79	99.0087
524.92	99.3151
525.05	98.8759
525.18	99.0737
525.31	98.7026
525.43	99.2655
525.56	99.6714
525.69	99.7646
525.82	99.4349
525.94	100.1930
526.07	100.1162
526.20	99.2972
526.33	99.2133
526.45	99.2578
526.58	99.1679
526.71	98.7473
526.84	99.0733
526.96	99.0556
527.09	99.1219
527.22	99.2854
527.35	99.0956
527.47	99.1616
527.60	99.1288
527.73	98.8989
527.86	98.6742
527.98	99.2067
528.11	98.8045
528.24	99.1320
528.37	99.2190
528.49	98.8791
528.62	99.1251
528.75	99.4242
528.88	99.2236
529.00	99.4941
529.13	99.9057
529.26	99.1565
529.39	98.8572
529.51	99.1567
529.64	99.0321
529.77	98.7078
529.90	98.9903
530.02	99.3772
530.15	99.1345
530.28	98.9986
530.40	99.0720
530.53	99.2461
530.66	98.7823
530.79	98.7894
530.91	98.7448
531.04	98.8632
531.17	98.6586
531.30	98.8849
531.42	98.2937
531.55	98.5503
531.68	98.6993
531.81	98.7251
531.93	99.0163
532.06	99.5546
532.19	99.3270
532.31	99.1185
532.44	99.4237
532.57	99.2209
532.70	99.0663
532.82	98.9036
532.95	98.7847
533.08	98.7003
533.21	98.8606
533.33	99.0628
533.46	98.8277
533.59	99.2010
533.71	99.2822
533.84	99.1948
533.97	99.1067
534.10	99.4481
534.22	99.3130
534.35	98.8373
534.48	98.8237
534.61	98.9661
534.73	98.8975
534.86	98.6356
534.99	98.9220
535.11	98.9019
535.24	98.9077
535.37	99.2069
535.50	99.2531
535.62	99.0736
535.75	99.0852
535.88	98.9268
536.00	98.6262
536.13	98.7323
536.26	99.0029
536.39	98.7400
536.51	98.9107
536.64	99.2601
536.77	99.2820
536.89	99.0560
537.02	99.2854
537.15	99.1028
537.28	99.0923
537.40	98.8968
537.53	98.9712
537.66	99.1644
537.78	99.4516
537.91	99.3880
538.04	99.9974
538.17	99.8322
538.29	99.3100
538.42	99.0887
538.55	99.2049
538.67	98.7876
538.80	99.2464
538.93	99.3139
539.05	99.1817
539.18	98.9014
539.31	99.1997
539.44	98.8319
539.56	99.0761
539.69	99.4750
539.82	99.6902
539.94	99.0291
540.07	99.0988
540.20	99.0572
540.32	98.6642
540.45	98.2400
540.58	98.9179
540.71	99.2220
540.83	99.3872
540.96	99.2789
541.09	99.3636
541.21	99.3618
541.34	99.2176
541.47	98.9405
541.59	98.7513
541.72	98.9189
541.85	98.9702
541.98	98.8721
542.10	98.5469
542.23	98.9623
542.36	99.0870
542.48	98.9574
542.61	98.8621
542.74	99.3474
542.86	99.4788
542.99	99.2825
543.12	99.2159
543.24	99.1105
543.37	99.0258
543.50	98.7748
543.62	99.0118
543.75	99.0439
543.88	99.0504
544.01	98.9218
544.13	99.0716
544.26	98.9028
544.39	98.6589
544.51	98.6679
544.64	98.9410
544.77	98.7487
544.89	98.9010
545.02	98.7935
545.15	98.5462
545.27	98.4458
545.40	98.4700
545.53	98.5276
545.65	99.0118
545.78	99.4089
545.91	99.2853
546.03	99.5955
546.16	99.5196
546.29	99.2390
546.41	99.4128
546.54	99.3865
546.67	99.0059
546.79	99.2247
546.92	99.2175
547.05	99.0939
547.17	99.1983
547.30	99.5930
547.43	99.2863
547.56	99.4020
547.68	99.3378
547.81	99.3392
547.94	99.2430
548.06	99.0323
548.19	99.0559
548.32	99.1583
548.44	99.0030
548.57	98.6126
548.70	98.7348
548.82	98.7134
548.95	98.8604
549.08	98.6995
549.20	98.9807
549.33	99.1779
549.45	99.3741
549.58	99.0122
549.71	99.5908
549.83	99.5407
549.96	99.3678
550.09	99.0258
550.21	99.3490
550.34	99.1285
550.47	99.5750
550.59	99.6531
550.72	99.3805
550.85	99.3380
550.97	99.5042
551.10	98.9218
551.23	98.8788
551.35	99.4212
551.48	99.5437
551.61	99.1671
551.73	99.2694
551.86	99.3548
551.99	98.9373
552.11	98.5800
552.24	98.9072
552.37	99.0900
552.49	99.1131
552.62	99.4118
552.75	99.6498
552.87	99.5412
553.00	99.5634
553.12	99.4241
553.25	99.2029
553.38	99.0770
553.50	99.2904
553.63	99.1325
553.76	99.2321
553.88	99.4850
554.01	99.4261
554.14	99.0131
554.26	99.2450
554.39	99.2194
554.52	99.1789
554.64	99.1507
554.77	99.2628
554.89	99.0768
555.02	99.0637
555.15	98.9604
555.27	98.7281
555.40	98.8776
555.53	99.0416
555.65	98.8929
555.78	98.7593
555.91	99.2544
556.03	99.3839
556.16	99.1417
556.29	98.9970
556.41	99.3265
556.54	99.2301
556.66	98.6251
556.79	98.6665
556.92	99.2217
557.04	99.0086
557.17	98.8660
557.30	99.2987
557.42	99.2605
557.55	99.0622
557.67	99.0578
557.80	99.0447
557.93	99.3010
558.05	99.3853
558.18	99.2408
558.31	99.1610
558.43	99.2707
558.56	99.1371
558.68	99.0416
558.81	98.7751
558.94	99.0083
559.06	98.9908
559.19	98.8953
559.32	98.9069
559.44	99.2109
559.57	99.0720
559.69	98.8595
559.82	98.7911
559.95	99.0378
560.07	99.0559
560.20	98.8885
560.33	99.1685
560.45	98.8697
560.58	98.8273
560.70	98.8779
560.83	99.0477
560.96	98.7748
561.08	99.2560
561.21	99.4073
561.33	99.0603
561.46	99.1269
561.59	99.3529
561.71	99.2671
561.84	98.9737
561.97	99.4922
562.09	99.5495
562.22	99.4090
562.34	99.4000
562.47	99.5149
562.60	99.4150
562.72	99.2512
562.85	99.3734
562.97	99.3769
563.10	99.4042
563.23	99.2395
563.35	99.2375
563.48	99.0680
563.60	99.2188
563.73	99.2027
563.86	99.2554
563.98	99.4223
564.11	99.2850
564.23	99.0649
564.36	98.8809
564.49	98.9765
564.61	98.9345
564.74	98.9843
564.86	98.9560
564.99	98.9179
565.12	98.9014
565.24	98.8207
565.37	98.9020
565.49	99.0147
565.62	99.4348
565.75	98.9258
565.87	98.9326
566.00	99.3285
566.12	99.0566
566.25	98.8692
566.38	99.1441
566.50	99.0770
566.63	98.8210
566.75	99.0354
566.88	98.8931
567.01	99.0406
567.13	99.2409
567.26	99.0430
567.38	99.1273
567.51	99.1151
567.64	99.0442
567.76	98.9912
567.89	99.2234
568.01	99.0072
568.14	99.0155
568.26	99.0897
568.39	98.9737
568.52	98.9227
568.64	99.0636
568.77	99.0939
568.89	99.2442
569.02	99.3317
569.15	99.1766
569.27	98.9155
569.40	98.8731
569.52	98.7726
569.65	98.8323
569.77	99.0698
569.90	99.0282
570.03	99.2328
570.15	99.2452
570.28	99.4333
570.40	99.3810
570.53	99.6007
570.66	99.5381
570.78	99.6125
570.91	99.3063
571.03	99.2410
571.16	99.3722
571.28	99.2961
571.41	99.3400
571.54	99.3280
571.66	99.3177
571.79	99.2754
571.91	99.1352
572.04	98.7041
572.16	98.7669
572.29	98.7717
572.42	98.7717
572.54	98.7644
572.67	99.0806
572.79	99.0955
572.92	99.1123
573.04	99.2622
573.17	99.5912
573.29	99.2769
573.42	99.1491
573.55	99.1989
573.67	99.1419
573.80	99.0591
573.92	99.1201
574.05	99.1230
574.17	99.0701
574.30	99.0749
574.43	98.8832
574.55	99.1201
574.68	99.2296
574.80	99.3759
574.93	99.3784
575.05	99.4958
575.18	99.3492
575.30	99.1587
575.43	99.1443
575.56	99.0677
575.68	99.1405
575.81	99.0828
575.93	99.2409
576.06	99.3058
576.18	99.3274
576.31	98.9078
576.43	98.9687
576.56	99.0092
576.69	99.0162
576.81	99.0284
576.94	99.3317
577.06	99.4452
577.19	99.3458
577.31	98.9142
577.44	98.8486
577.56	98.6867
577.69	98.7668
577.82	99.1194
577.94	99.1992
578.07	99.0550
578.19	99.4761
578.32	99.4812
578.44	99.2015
578.57	99.5004
578.69	99.5204
578.82	99.1518
578.94	99.0329
579.07	98.9818
579.19	98.8429
579.32	99.0880
579.45	99.3792
579.57	99.3482
579.70	99.5171
579.82	99.3692
579.95	99.3161
580.07	99.0571
580.20	99.0850
580.32	99.0101
580.45	99.1508
580.57	99.0087
580.70	98.9662
580.82	99.3539
580.95	99.1290
581.08	99.2234
581.20	99.2157
581.33	99.3322
581.45	98.7613
581.58	99.2031
581.70	99.0574
581.83	99.0197
581.95	99.0730
582.08	99.3398
582.20	99.1585
582.33	99.2739
582.45	99.2323
582.58	99.1868
582.70	99.1363
582.83	99.0137
582.95	98.9463
583.08	98.9403
583.21	99.0144
583.33	99.3072
583.46	99.3751
583.58	99.2943
583.71	99.5069
583.83	99.5376
583.96	99.2939
584.08	99.2634
584.21	99.4774
584.33	99.5896
584.46	99.3286
584.58	99.0983
584.71	99.2100
584.83	99.2491
584.96	98.9592
585.08	98.9598
585.21	99.1942
585.33	99.1081
585.46	99.1465
585.58	99.3272
585.71	99.3042
585.83	99.3796
585.96	99.2487
586.08	98.9934
586.21	99.0939
586.33	99.1646
586.46	99.0860
586.59	99.1184
586.71	99.0877
586.84	99.0453
586.96	99.1522
587.09	98.7446
587.21	98.7611
587.34	98.9642
587.46	98.6809
587.59	98.6493
587.71	99.2037
587.84	99.3780
587.96	99.1307
588.09	99.2537
588.21	99.2584
588.34	99.1354
588.46	99.1457
588.59	99.4187
588.71	99.5028
588.84	99.1873
588.96	99.1139
589.09	99.1716
589.21	99.1050
589.34	98.8787
589.46	99.0748
589.59	99.2583
589.71	99.1945
589.84	99.0545
589.96	99.1065
590.09	99.1589
590.21	98.9466
590.34	99.0444
590.46	99.0988
590.59	98.9881
590.71	99.2494
590.84	99.1548
590.96	98.9852
591.09	99.1245
591.21	99.5516
591.34	99.1094
591.46	99.1324
591.59	98.9709
591.71	99.0540
591.83	98.8029
591.96	99.1016
592.08	99.2281
592.21	99.4771
592.33	99.5158
592.46	99.5297
592.58	99.3937
592.71	99.4327
592.83	99.1806
592.96	99.0599
593.08	99.2361
593.21	99.4163
593.33	99.4360
593.46	99.4717
593.58	99.3472
593.71	99.3843
593.83	99.0331
593.96	98.8875
594.08	99.0503
594.21	99.0439
594.33	99.0698
594.46	99.5189
594.58	99.6405
594.71	99.6171
594.83	99.2398
594.96	99.0226
595.08	98.9879
595.20	99.1205
595.33	98.6973
595.45	99.0821
595.58	99.3143
595.70	99.2432
595.83	98.9737
595.95	99.3671
596.08	99.5108
596.20	99.3418
596.33	99.3976
596.45	99.6867
596.58	99.6014
596.70	99.5070
596.83	99.4040
596.95	99.4753
597.08	99.2249
597.20	99.1696
597.32	99.0893
597.45	99.1252
597.57	99.0200
597.70	99.0260
597.82	99.2280
597.95	99.2632
598.07	99.2899
598.20	99.3718
598.32	99.3439
598.45	99.1753
598.57	99.2920
598.70	99.3879
598.82	99.0810
598.94	99.0312
599.07	99.1175
599.19	99.3274
599.32	99.0002
599.44	99.1080
599.57	99.1952
599.69	99.3175
599.82	98.7102
599.94	98.8341
600.07	99.0240
600.19	99.1442
600.31	98.6905
600.44	98.8589
600.56	99.0104
600.69	98.9257
600.81	98.8799
600.94	99.1265
601.06	99.1141
601.19	99.2906
601.31	99.0607
601.44	99.0031
601.56	99.0710
601.68	99.2532
601.81	98.8705
601.93	99.2608
602.06	99.5180
602.18	99.3801
602.31	99.2517
602.43	99.4496
602.56	99.2812
602.68	98.9249
602.80	99.1885
602.93	99.2121
603.05	99.1113
603.18	99.1900
603.30	99.4162
603.43	99.2564
603.55	99.3095
603.68	99.3815
603.80	99.2387
603.92	99.0923
604.05	99.2709
604.17	99.2154
604.30	99.0730
604.42	98.8861
604.55	98.9103
604.67	98.7805
604.79	98.7405
604.92	98.9194
605.04	99.1874
605.17	99.2067
605.29	99.0349
605.42	99.2372
605.54	99.1543
605.66	99.0605
605.79	98.9402
605.91	99.1439
606.04	98.8767
606.16	98.8512
606.29	99.0109
606.41	99.2068
606.53	99.0919
606.66	99.3714
606.78	99.4845
606.91	99.3718
607.03	99.3981
607.16	99.3512
607.28	99.0897
607.40	99.1008
607.53	99.1482
607.65	99.1324
607.78	99.0644
607.90	99.3468
608.03	99.2930
608.15	99.4099
608.27	99.4174
608.40	99.6558
608.52	99.3323
608.65	99.5331
608.77	99.2470
608.89	98.9257
609.02	98.9943
609.14	99.1009
609.27	98.9896
609.39	99.4988
609.52	99.8053
609.64	99.8239
609.76	99.7804
609.89	99.5095
610.01	99.2233
610.14	99.2381
610.26	98.9588
610.38	99.2344
610.51	99.5432
610.63	99.4727
610.76	99.4180
610.88	99.3390
611.01	99.1584
611.13	99.1598
611.25	99.2028
611.38	99.2944
611.50	99.4826
611.63	99.6208
611.75	99.4867
611.87	99.1981
612.00	99.0140
612.12	99.2408
612.25	99.1208
612.37	99.1431
612.49	99.1254
612.62	99.2321
612.74	99.0390
612.87	99.1776
612.99	99.0252
613.11	99.0199
613.24	98.9353
613.36	98.9357
613.49	98.8310
613.61	98.8293
613.73	99.1693
613.86	99.2675
613.98	99.2015
614.11	99.0317
614.23	99.0087
614.35	98.9084
614.48	98.8242
614.60	98.7707
614.72	98.9666
614.85	99.1811
614.97	99.2777
615.10	99.2303
615.22	99.2899
615.34	99.3779
615.47	99.3407
615.59	99.2582
615.72	99.5707
615.84	99.3117
615.96	99.2116
616.09	99.3158
616.21	99.1514
616.34	98.8117
616.46	99.1104
616.58	99.0311
616.71	98.8093
616.83	98.8138
616.95	98.9202
617.08	98.9940
617.20	99.1298
617.33	98.9739
617.45	99.0983
617.57	99.1304
617.70	98.9692
617.82	98.8036
617.95	99.1264
618.07	99.1167
618.19	98.9709
618.32	99.1523
618.44	99.3548
618.56	99.4339
618.69	99.1888
618.81	99.3109
618.94	99.1696
619.06	98.9491
619.18	98.8726
619.31	98.9458
619.43	98.7598
619.55	99.1126
619.68	99.4102
619.80	99.0547
619.92	99.0866
620.05	99.4568
620.17	99.4488
620.30	99.1782
620.42	99.4364
620.54	99.6084
620.67	99.4198
620.79	98.9192
620.91	98.9457
621.04	98.9902
621.16	99.1918
621.29	99.2234
621.41	99.4782
621.53	99.7460
621.66	99.5762
621.78	99.0641
621.90	99.1971
622.03	99.2579
622.15	99.0854
622.27	99.3359
622.40	99.5281
622.52	99.6257
622.64	99.6193
622.77	99.3813
622.89	99.3450
623.02	99.4486
623.14	99.2166
623.26	99.0247
623.39	99.3542
623.51	99.5453
623.63	99.3898
623.76	99.3173
623.88	99.4925
624.00	99.3207
624.13	99.1037
624.25	99.1123
624.37	98.9693
624.50	99.1851
624.62	99.4470
624.75	99.2446
624.87	99.4604
624.99	99.6907
625.12	98.9931
625.24	98.7368
625.36	98.9146
625.49	98.7041
625.61	98.4489
625.73	99.0321
625.86	99.1012
625.98	99.1621
626.10	99.1186
626.23	99.2223
626.35	99.1460
626.47	99.1093
626.60	99.0451
626.72	99.0521
626.84	99.2155
626.97	99.2529
627.09	98.9414
627.21	98.7568
627.34	99.0809
627.46	99.1081
627.58	98.8655
627.71	99.5824
627.83	99.6037
627.95	99.0838
628.08	99.0170
628.20	99.3137
628.32	99.0090
628.45	99.1315
628.57	99.3894
628.69	99.2141
628.82	99.2363
628.94	99.2126
629.06	99.1616
629.19	99.4345
629.31	99.5749
629.43	99.4203
629.56	99.2048
629.68	99.3748
629.80	99.2868
629.93	99.3220
630.05	99.3093
630.17	99.6834
630.30	99.5513
630.42	99.6257
630.54	99.7781
630.67	99.5237
630.79	99.4204
630.91	99.4693
631.04	99.3835
631.16	99.3427
631.28	99.7199
631.41	99.4934
631.53	99.3022
631.65	99.0709
631.78	98.8675
631.90	99.0255
632.02	98.9569
632.14	99.1625
632.27	99.3738
632.39	99.1499
632.51	98.8989
632.64	99.1481
632.76	99.1595
632.88	99.2162
633.01	99.4507
633.13	99.0595
633.25	99.2101
633.38	99.2898
633.50	99.2368
633.62	99.4381
633.75	99.7268
633.87	99.5351
633.99	99.5804
634.11	99.3998
634.24	99.3004
634.36	99.3937
634.48	99.1871
634.61	99.2343
634.73	99.4662
634.85	99.5280
634.98	99.6107
635.10	99.5198
635.22	99.3521
635.35	99.5786
635.47	99.5708
635.59	99.4521
635.71	99.6393
635.84	99.5007
635.96	99.3316
636.08	99.1863
636.21	99.0825
636.33	99.3276
636.45	99.6454
636.58	99.2640
636.70	99.4272
636.82	99.8572
636.94	99.6337
637.07	99.3303
637.19	99.5644
637.31	99.6664
637.44	99.3673
637.56	99.4373
637.68	99.5512
637.81	99.9533
637.93	99.6330
638.05	99.2406
638.17	99.3331
638.30	99.4306
638.42	99.0540
638.54	99.2323
638.67	99.5808
638.79	99.6781
638.91	99.6774
639.03	99.7694
639.16	99.7610
639.28	99.8633
639.40	99.4367
639.53	99.3664
639.65	99.3867
639.77	99.2133
639.89	99.0696
640.02	99.4296
640.14	99.1392
640.26	99.0780
640.39	99.2599
640.51	99.1414
640.63	98.9079
640.75	99.2113
640.88	99.1706
641.00	98.6847
641.12	99.0248
641.24	99.4239
641.37	99.0200
641.49	99.1247
641.61	99.5313
641.74	99.5385
641.86	99.1121
641.98	99.4386
642.10	99.4177
642.23	99.4076
642.35	99.1058
642.47	99.0992
642.60	99.2008
642.72	99.1194
642.84	99.0616
642.96	99.1274
643.09	99.3240
643.21	99.2961
643.33	99.2248
643.45	99.0809
643.58	99.2511
643.70	99.1599
643.82	99.1390
643.94	99.2685
644.07	99.4604
644.19	99.2822
644.31	99.3771
644.44	99.3250
644.56	99.2614
644.68	99.2908
644.80	99.4209
644.93	99.2901
645.05	99.3574
645.17	99.4022
645.29	99.3706
645.42	99.0531
645.54	99.0162
645.66	99.0198
645.78	98.9075
645.91	98.7272
646.03	99.1076
646.15	99.2601
646.27	99.2195
646.40	99.1026
646.52	99.3755
646.64	99.4356
646.76	99.2397
646.89	99.1432
647.01	99.1398
647.13	99.3406
647.25	99.1978
647.38	99.1650
647.50	99.4857
647.62	99.8572
647.74	99.4737
647.87	99.2473
647.99	99.4487
648.11	99.4444
648.23	99.1525
648.36	99.3106
648.48	99.6011
648.60	99.7677
648.72	99.2215
648.85	99.2856
648.97	99.3057
649.09	99.2528
649.21	99.0526
649.34	99.3495
649.46	99.4362
649.58	99.5442
649.70	99.2816
649.83	99.1961
649.95	99.1665
650.07	99.0784
650.19	98.8135
650.32	98.9171
650.44	99.0089
650.56	99.0237
650.68	99.0550
650.81	99.0018
650.93	99.1169
651.05	99.0001
651.17	99.0355
651.29	99.0163
651.42	99.2543
651.54	99.4005
651.66	99.3561
651.78	98.8618
651.91	98.8540
652.03	98.8768
652.15	98.6964
652.27	98.9743
652.40	99.5414
652.52	99.7793
652.64	99.3095
652.76	99.3249
652.88	99.2453
653.01	99.3758
653.13	99.0192
653.25	99.1940
653.37	99.1530
653.50	99.2151
653.62	98.6967
653.74	98.6545
653.86	98.9527
653.98	98.9939
654.11	98.9274
654.23	98.9503
654.35	99.1234
654.47	99.1817
654.60	99.5234
654.72	99.2572
654.84	99.5415
654.96	99.5800
655.08	99.4204
655.21	98.9942
655.33	99.2102
655.45	99.2583
655.57	99.1003
655.70	98.8815
655.82	98.9335
655.94	99.2544
656.06	99.1039
656.18	99.1411
656.31	99.4753
656.43	99.6287
656.55	99.3757
656.67	99.3701
656.79	99.6286
656.92	99.6608
657.04	99.3191
657.16	99.3665
657.28	99.3635
657.40	99.3939
657.53	99.1993
657.65	99.1348
657.77	99.1523
657.89	99.3397
658.01	99.0122
658.14	99.0468
658.26	99.4656
658.38	99.3752
658.50	98.9383
658.62	99.1585
658.75	99.1411
658.87	99.3432
658.99	99.4071
659.11	99.4982
659.23	99.5703
659.36	99.6375
659.48	99.4002
659.60	99.3706
659.72	99.5712
659.84	99.4936
659.97	99.0458
660.09	98.8076
660.21	99.0229
660.33	99.3180
660.45	99.1830
660.58	99.3628
660.70	99.7150
660.82	99.3878
660.94	98.9430
661.06	98.8755
661.19	99.1767
661.31	99.0028
661.43	98.8753
661.55	98.8610
661.67	99.1139
661.80	98.9906
661.92	98.9647
662.04	99.0605
662.16	99.4024
662.28	99.3419
662.40	99.3020
662.53	99.5122
662.65	99.4902
662.77	99.5403
662.89	99.6758
663.01	99.7460
663.14	99.4718
663.26	99.7470
663.38	99.5066
663.50	99.0696
663.62	99.0162
663.74	99.1044
663.87	98.7842
663.99	98.3745
664.11	98.6330
664.23	98.8107
664.35	98.6931
664.48	98.9733
664.60	99.5836
664.72	99.6590
664.84	99.3845
664.96	99.5861
665.08	99.4037
665.21	99.5557
665.33	99.4068
665.45	99.3695
665.57	99.2547
665.69	99.3035
665.81	99.0354
665.94	98.9014
666.06	98.9451
666.18	99.2378
666.30	99.1095
666.42	99.0191
666.54	99.3305
666.67	99.3080
666.79	99.0790
666.91	99.3813
667.03	99.4774
667.15	99.4030
667.27	99.6552
667.40	99.3647
667.52	99.1895
667.64	99.4121
667.76	99.2842
667.88	99.0381
668.00	99.2208
668.13	99.2507
668.25	99.0320
668.37	98.8797
668.49	99.1411
668.61	99.3006
668.73	99.2489
668.85	99.1083
668.98	99.4853
669.10	99.3067
669.22	98.9597
669.34	99.1518
669.46	99.1881
669.58	98.9485
669.71	99.1447
669.83	99.3599
669.95	99.2312
670.07	99.2294
670.19	99.4457
670.31	99.3886
670.43	99.2559
670.56	99.1399
670.68	99.3325
670.80	98.8566
670.92	98.7455
671.04	98.9949
671.16	99.1476
671.28	98.8402
671.41	99.2299
671.53	99.5105
671.65	99.0688
671.77	98.7781
671.89	99.0372
672.01	99.2930
672.13	99.0230
672.26	99.6008
672.38	99.7170
672.50	99.5493
672.62	99.1766
672.74	99.3081
672.86	99.1021
672.98	99.2786
673.11	99.1817
673.23	99.3647
673.35	99.3122
673.47	99.5511
673.59	99.3700
673.71	99.1337
673.83	99.0377
673.96	99.2335
674.08	98.8852
674.20	98.9375
674.32	99.3926
674.44	99.4772
674.56	99.0634
674.68	99.0133
674.80	99.2103
674.93	99.1949
675.05	98.9736
675.17	99.0545
675.29	99.2379
675.41	99.1106
675.53	99.1418
675.65	99.1577
675.77	99.3590
675.90	99.5802
676.02	99.3388
676.14	99.0367
676.26	99.2946
676.38	99.2588
676.50	99.1640
676.62	99.6933
676.74	99.9159
676.87	99.6009
676.99	99.4856
677.11	99.4220
677.23	99.1699
677.35	99.4063
677.47	99.6508
677.59	99.5832
677.71	99.5301
677.83	99.3628
677.96	99.2134
678.08	99.2735
678.20	99.4977
678.32	99.5493
678.44	99.3755
678.56	99.2694
678.68	99.3569
678.80	99.3108
678.93	99.2083
679.05	99.3108
679.17	99.4648
679.29	99.3710
679.41	99.3474
679.53	99.3467
679.65	99.5390
679.77	99.4274
679.89	99.1300
680.01	99.4079
680.14	99.6290
680.26	99.5269
680.38	99.4957
680.50	99.6848
680.62	99.3967
680.74	99.2692
680.86	99.4014
680.98	99.0876
681.10	99.1766
681.22	99.3692
681.35	99.5291
681.47	98.9886
681.59	99.3821
681.71	99.4368
681.83	99.0642
681.95	98.5899
682.07	99.0536
682.19	99.0541
682.31	98.5877
682.43	98.8154
682.56	99.0610
682.68	99.0724
682.80	98.8788
682.92	99.2441
683.04	99.3312
683.16	99.1566
683.28	99.1275
683.40	99.1648
683.52	99.1425
683.64	99.0542
683.76	99.2546
683.89	99.1062
684.01	99.1801
684.13	99.1982
684.25	99.0970
684.37	99.2034
684.49	99.2035
684.61	99.3103
684.73	99.4458
684.85	99.2230
684.97	99.1897
685.09	99.5920
685.21	99.2398
685.34	99.1665
685.46	99.4393
685.58	99.1630
685.70	99.1291
685.82	99.4351
685.94	99.3639
686.06	99.3152
686.18	99.4653
686.30	99.1620
686.42	99.2222
686.54	98.8886
686.66	98.9284
686.79	98.6801
686.91	98.7302
687.03	98.8455
687.15	99.2457
687.27	99.0222
687.39	99.3416
687.51	99.4116
687.63	99.1553
687.75	98.7679
687.87	99.1719
687.99	99.0785
688.11	98.9011
688.23	99.0775
688.35	99.5093
688.48	99.4602
688.60	99.4234
688.72	99.6439
688.84	99.6761
688.96	99.7155
689.08	99.1493
689.20	99.1588
689.32	99.2521
689.44	99.3224
689.56	99.0877
689.68	99.4956
689.80	99.5535
689.92	99.4501
690.04	99.2864
690.16	99.2972
690.28	99.6483
690.41	99.5633
690.53	99.2241
690.65	98.9909
690.77	99.0003
690.89	98.6993
691.01	98.8796
691.13	99.0661
691.25	99.3183
691.37	99.5988
691.49	99.1853
691.61	98.9216
691.73	99.1743
691.85	99.1974
691.97	98.6458
692.09	98.9729
692.21	99.0041
692.33	99.1265
692.45	99.1166
692.57	99.2332
692.70	99.5273
692.82	99.7350
692.94	99.4511
693.06	99.4838
693.18	99.8151
693.30	99.3329
693.42	99.2567
693.54	99.3948
693.66	99.5801
693.78	99.3876
693.90	99.7356
694.02	99.9497
694.14	99.8212
694.26	99.2991
694.38	99.2065
694.50	99.2198
694.62	99.0983
694.74	98.9971
694.86	99.1825
694.98	99.1459
695.10	99.1903
695.22	99.1057
695.34	99.2956
695.46	99.3293
695.58	99.5468
695.71	99.4745
695.83	99.1880
695.95	99.2470
696.07	99.3600
696.19	99.4577
696.31	99.1759
696.43	99.4341
696.55	99.4829
696.67	99.4882
696.79	99.4493
696.91	99.3566
697.03	99.4077
697.15	99.4396
697.27	99.0800
697.39	99.0213
697.51	99.3299
697.63	98.9904
697.75	98.7911
697.87	99.1558
697.99	99.0414
698.11	98.9655
698.23	99.1941
698.35	99.1712
698.47	99.3031
698.59	99.1242
698.71	99.3012
698.83	99.4762
698.95	99.5372
699.07	99.2577
699.19	99.5563
699.31	99.3587
699.43	99.3785
699.55	99.4313
699.67	99.5810
699.79	99.5843
699.91	99.6695
700.03	99.5577
700.15	99.4582
700.27	99.5960
700.39	99.4355
700.51	99.4452
700.63	99.2833
700.75	99.4776
700.87	99.2117
700.99	99.5290
701.11	99.5153
701.24	99.4489
701.36	99.2541
701.48	99.4942
701.60	99.0573
701.72	99.1429
701.84	99.5556
701.96	99.4212
702.08	99.0119
702.20	99.2360
702.32	99.3064
702.44	99.2805
702.56	99.4769
702.68	99.4240
702.80	99.3802
702.92	99.3379
703.04	99.2829
703.16	99.5091
703.28	99.7917
703.40	99.7647
703.52	99.5812
703.64	99.3710
703.76	99.0667
703.88	99.0286
704.00	98.9084
704.12	99.0373
704.24	99.0954
704.36	99.2637
704.48	99.1763
704.60	99.3485
704.72	99.0112
704.84	99.0208
704.96	99.1087
705.07	99.2827
705.19	99.1186
705.31	99.5006
705.43	99.3319
705.55	99.0345
705.67	99.1139
705.79	99.3163
705.91	99.0784
706.03	99.1697
706.15	99.4075
706.27	99.1976
706.39	99.2591
706.51	99.4538
706.63	99.4992
706.75	99.2317
706.87	99.3225
706.99	99.4832
707.11	99.4663
707.23	99.5037
707.35	99.5316
707.47	99.3910
707.59	99.2835
707.71	99.2258
707.83	99.3525
707.95	99.1642
708.07	99.2350
708.19	99.4805
708.31	99.5173
708.43	99.3060
708.55	99.5634
708.67	99.4801
708.79	99.0950
708.91	98.9052
709.03	99.0982
709.15	99.0722
709.27	99.1706
709.39	99.1205
709.51	99.2572
709.63	99.4707
709.75	99.4427
709.87	99.4830
709.99	99.6648
710.11	99.8921
710.23	99.3073
710.35	99.2955
710.47	99.2965
710.58	99.0563
710.70	98.8327
710.82	99.1016
710.94	99.0377
711.06	99.0445
711.18	98.8681
711.30	98.7101
711.42	98.6703
711.54	99.0776
711.66	99.0244
711.78	99.0450
711.90	99.4378
712.02	99.8301
712.14	99.3686
712.26	99.1074
712.38	99.4843
712.50	99.4135
712.62	99.1566
712.74	98.9334
712.86	99.3034
712.98	99.2660
713.10	98.9157
713.22	98.6934
713.34	99.0077
713.45	98.9299
713.57	98.7929
713.69	98.9754
713.81	99.3457
713.93	99.8607
714.05	99.6850
714.17	99.5835
714.29	99.8632
714.41	99.6459
714.53	99.2453
714.65	99.6013
714.77	99.4233
714.89	99.2049
715.01	99.2538
715.13	99.2422
715.25	99.1872
715.37	99.3643
715.49	99.3017
715.61	99.0288
715.72	99.1285
715.84	99.0781
715.96	98.9964
716.08	98.9272
716.20	99.1729
716.32	99.0409
716.44	98.8971
716.56	98.7656
716.68	98.7835
716.80	98.9021
716.92	99.0181
717.04	99.1297
717.16	99.6324
717.28	99.5563
717.40	99.3322
717.52	99.1908
717.63	99.0482
717.75	98.8983
717.87	99.1035
717.99	98.9369
718.11	98.8721
718.23	98.8979
718.35	99.1749
718.47	99.1703
718.59	99.5186
718.71	99.5565
718.83	99.9158
718.95	99.6660
719.07	99.6672
719.19	99.6221
719.30	99.7277
719.42	99.5018
719.54	99.4875
719.66	99.6644
719.78	99.5354
719.90	99.5342
720.02	99.3197
720.14	99.2803
720.26	99.0296
720.38	99.3416
720.50	99.1269
720.62	99.5030
720.74	99.4545
720.85	99.1842
720.97	99.1217
721.09	99.2088
721.21	99.0365
721.33	99.2180
721.45	99.4898
721.57	99.7020
721.69	99.5515
721.81	99.2607
721.93	99.3522
722.05	99.6246
722.16	99.3141
722.28	99.3636
722.40	99.3623
722.52	99.5103
722.64	99.2797
722.76	99.1539
722.88	99.5329
723.00	99.7499
723.12	99.8034
723.24	99.5481
723.36	99.4725
723.47	99.3313
723.59	99.2755
723.71	99.1396
723.83	99.4333
723.95	99.4236
724.07	99.0620
724.19	99.3224
724.31	99.4166
724.43	99.5028
724.55	99.0391
724.66	99.4845
724.78	99.4725
724.90	99.1455
725.02	98.9283
725.14	99.8860
725.26	99.7806
725.38	99.5184
725.50	99.4682
725.62	99.7033
725.74	99.7718
725.85	99.9236
725.97	98.7714
726.09	99.1510
726.21	99.3914
726.33	99.2428
726.45	99.1669
726.57	100.5260
726.69	100.1530
726.81	99.7891
726.92	99.4978
727.04	99.4553
727.16	99.4132
727.28	99.5765
727.40	99.1038
727.52	98.9372
727.64	98.8655
727.76	99.0020
727.88	98.9314
727.99	99.3200
728.11	99.5525
728.23	99.6772
728.35	99.4806
728.47	99.4260
728.59	99.6768
728.71	99.7354
728.83	99.5152
728.94	99.4037
729.06	99.4973
729.18	99.3602
729.30	99.1303
729.42	99.1269
729.54	99.3778
729.66	99.2261
729.78	99.1326
729.90	99.5736
730.01	99.6673
730.13	99.6500
730.25	99.6150
730.37	99.7079
730.49	99.4282
730.61	99.3704
730.73	99.3613
730.84	99.4273
730.96	99.6121
731.08	99.8158
731.20	99.3803
731.32	99.4866
731.44	99.6442
731.56	99.2933
731.68	99.1015
731.79	99.7284
731.91	99.4054
732.03	99.3739
732.15	99.4784
732.27	99.2311
732.39	99.2689
732.51	99.5606
732.62	99.1640
732.74	99.2208
732.86	99.6226
732.98	99.4645
733.10	98.9879
733.22	99.5814
733.34	99.4613
733.45	99.3023
733.57	99.2515
733.69	99.5944
733.81	99.4267
733.93	99.4591
734.05	99.4607
734.17	99.5490
734.28	99.8191
734.40	99.8369
734.52	99.4963
734.64	99.5305
734.76	99.7511
734.88	99.3773
735.00	98.8656
735.11	99.4240
735.23	99.7212
735.35	99.2888
735.47	99.4575
735.59	99.9435
735.71	99.6074
735.83	99.1912
735.94	99.3272
736.06	99.1443
736.18	99.0331
736.30	99.4965
736.42	99.6434
736.54	99.0962
736.65	99.2904
736.77	99.5099
736.89	98.7145
737.01	99.0697
737.13	99.8307
737.25	99.6795
737.36	99.4368
737.48	100.0301
737.60	99.6091
737.72	99.1471
737.84	99.2536
737.96	99.1412
738.08	99.2681
738.19	99.1878
738.31	99.5232
738.43	99.3591
738.55	99.6590
738.67	99.4695
738.79	99.4456
738.90	99.6018
739.02	99.8641
739.14	99.5757
739.26	99.3562
739.38	99.6935
739.50	99.5825
739.61	99.4546
739.73	99.4793
739.85	99.4085
739.97	99.6003
740.09	99.5389
740.20	99.3781
740.32	99.8120
740.44	100.0742
740.56	99.6700
740.68	99.6419
740.80	99.5246
740.91	99.1426
741.03	99.2709
741.15	99.0952
741.27	99.0510
741.39	99.0109
741.51	99.1005
741.62	98.9983
741.74	99.2028
741.86	99.2264
741.98	99.4308
742.10	99.3364
742.21	99.3814
742.33	98.9433
742.45	98.9802
742.57	98.9105
742.69	99.0849
742.80	99.0746
742.92	99.5896
743.04	99.2540
743.16	99.5897
743.28	99.5425
743.40	99.6629
743.51	99.5873
743.63	99.9315
743.75	99.6688
743.87	99.5187
743.99	99.2348
744.10	99.2511
744.22	98.9880
744.34	98.7758
744.46	99.0222
744.58	98.7900
744.69	98.6529
744.81	99.1268
744.93	99.0528
745.05	98.6117
745.17	99.0006
745.28	99.1312
745.40	98.9724
745.52	99.2303
745.64	99.6728
745.76	99.8592
745.87	99.5853
745.99	99.6200
746.11	99.6892
746.23	99.7131
746.35	98.9125
746.46	98.9718
746.58	98.7936
746.70	98.7732
746.82	98.7383
746.94	99.3898
747.05	99.5925
747.17	99.8042
747.29	99.2859
747.41	99.5365
747.53	99.6050
747.64	99.4563
747.76	99.1097
747.88	99.7035
748.00	99.5512
748.12	99.5036
748.23	99.4549
748.35	99.5397
748.47	99.6150
748.59	99.5270
748.70	99.4162
748.82	99.5224
748.94	99.4581
749.06	99.4460
749.18	99.1552
749.29	99.1558
749.41	99.2972
749.53	99.3899
749.65	99.5264
749.76	99.8515
749.88	99.6691
750.00	99.4054
750.12	99.5084
750.24	99.5101
750.35	99.1503
750.47	99.4427
750.59	99.3216
750.71	99.6177
750.82	99.4422
750.94	99.5687
751.06	99.3724
751.18	99.5356
751.30	98.9997
751.41	98.9372
751.53	99.0909
751.65	98.9409
751.77	98.8795
751.88	99.4599
752.00	99.1635
752.12	99.0940
752.24	99.2622
752.35	99.2451
752.47	98.6179
752.59	99.1247
752.71	98.7630
752.83	99.0390
752.94	99.1014
753.06	99.3318
753.18	99.1689
753.30	99.5523
753.41	99.2466
753.53	99.2562
753.65	99.5019
753.77	99.4728
753.88	99.2970
754.00	99.1328
754.12	99.3766
754.24	99.6898
754.35	99.4542
754.47	99.4742
754.59	99.8346
754.71	99.8342
754.82	99.1820
754.94	99.4694
755.06	99.5807
755.18	99.6378
755.29	99.3845
755.41	99.6299
755.53	99.6200
755.65	99.5923
755.76	98.9671
755.88	98.9208
756.00	99.0848
756.12	98.9563
756.23	98.4561
756.35	98.8695
756.47	99.2820
756.59	98.9895
756.70	99.1768
756.82	99.5044
756.94	99.4470
757.06	99.2509
757.17	99.5472
757.29	99.2504
757.41	99.4496
757.53	99.4841
757.64	99.2619
757.76	98.9585
757.88	99.1106
758.00	99.4043
758.11	99.3798
758.23	99.5851
758.35	99.5523
758.47	99.6375
758.58	99.3419
758.70	99.5994
758.82	99.3423
758.94	99.6464
759.05	99.6564
759.17	99.2664
759.29	99.0697
759.40	99.3518
759.52	98.9907
759.64	98.7019
759.76	99.0925
759.87	99.1726
759.99	99.3762
760.11	99.5477
760.23	99.6723
760.34	99.6959
760.46	99.6820
760.58	99.2072
760.70	99.1154
760.81	99.1467
760.93	99.1857
761.05	99.4312
761.16	99.7248
761.28	100.0171
761.40	99.6770
761.52	99.4598
761.63	99.1951
761.75	99.2179
761.87	99.0436
761.98	99.5427
762.10	99.6447
762.22	100.0352
762.34	99.8497
762.45	99.2495
762.57	99.3239
762.69	99.2189
762.81	99.1091
762.92	99.0002
763.04	99.1102
763.16	98.9356
763.27	98.9609
763.39	98.4982
763.51	98.6941
763.63	99.4505
763.74	99.4989
763.86	99.6713
763.98	99.6265
764.09	99.7714
764.21	99.3915
764.33	99.3182
764.44	99.1632
764.56	99.3696
764.68	99.4064
764.80	99.0087
764.91	99.0961
765.03	99.2318
765.15	99.4274
765.26	98.9560
765.38	99.4063
765.50	99.3069
765.62	99.1972
765.73	99.2239
765.85	99.3768
765.97	99.5787
766.08	99.7668
766.20	99.7968
766.32	99.4215
766.43	99.5276
766.55	99.3418
766.67	99.2631
766.79	99.4355
766.90	99.7754
767.02	100.0709
767.14	99.3617
767.25	99.3078
767.37	99.2651
767.49	98.8333
767.60	98.3598
767.72	99.1066
767.84	99.2772
767.95	99.0691
768.07	99.2655
768.19	99.5201
768.31	99.5577
768.42	99.4115
768.54	99.1734
768.66	99.1086
768.77	99.2499
768.89	99.1640
769.01	98.9517
769.12	99.3176
769.24	99.5700
769.36	99.5213
769.47	99.2309
769.59	99.2975
769.71	99.2626
769.82	99.4081
769.94	99.0848
770.06	99.4891
770.17	99.4995
770.29	99.2010
770.41	99.0912
770.53	99.2595
770.64	98.9768
770.76	98.8875
770.88	99.5928
770.99	99.5445
771.11	99.6733
771.23	99.5388
771.34	99.4675
771.46	99.1289
771.58	98.9867
771.69	98.6982
771.81	99.2568
771.93	99.1020
772.04	99.0634
772.16	98.9875
772.28	99.1869
772.39	98.7216
772.51	99.2870
772.63	99.3704
772.74	98.8560
772.86	99.0833
772.98	99.3333
773.09	99.0254
773.21	98.8199
773.33	99.5653
773.44	99.0308
773.56	98.6444
773.68	98.9436
773.79	99.1208
773.91	99.1314
774.03	99.1095
774.14	99.6186
774.26	99.8545
774.38	99.7009
774.49	99.4502
774.61	99.8468
774.73	99.7631
774.84	99.2948
774.96	99.5320
775.08	99.5682
775.19	99.3177
775.31	99.2398
775.43	99.4872
775.54	98.8932
775.66	99.2636
775.77	99.0954
775.89	98.8414
776.01	98.6167
776.12	99.4035
776.24	99.2683
776.36	99.2111
776.47	99.1267
776.59	99.3483
776.71	99.1938
776.82	99.0730
776.94	99.2065
777.06	99.7899
777.17	100.0124
777.29	99.7601
777.41	99.7949
777.52	99.7517
777.64	99.9610
777.75	99.8101
777.87	99.6036
777.99	99.4603
778.10	99.6964
778.22	99.3159
778.34	98.9492
778.45	99.1963
778.57	99.3156
778.69	98.8284
778.80	98.8229
778.92	99.0952
779.04	99.0264
779.15	98.7202
779.27	98.8868
779.38	98.9746
779.50	98.8032
779.62	99.2107
779.73	98.8288
779.85	99.2299
779.97	99.4010
780.08	99.1959
780.20	98.7378
780.31	99.4287
780.43	99.5120
780.55	98.9439
780.66	98.6518
780.78	99.1708
780.90	99.3827
781.01	99.2801
781.13	99.0542
781.25	99.7490
781.36	99.4244
781.48	98.6743
781.59	98.4378
781.71	99.2127
781.83	99.5358
781.94	99.0951
782.06	99.7038
782.18	100.5979
782.29	100.1788
782.41	99.6680
782.52	100.2439
782.64	100.3981
782.76	100.4040
782.87	100.0787
782.99	99.4140
783.10	99.5548
783.22	99.3059
783.34	98.4484
783.45	98.9218
783.57	99.2784
783.69	98.4959
783.80	98.2825
783.92	98.5045
784.03	98.3072
784.15	98.6457
784.27	99.0788
784.38	99.1097
784.50	99.2053
784.61	99.5090
784.73	99.6919
784.85	99.3514
784.96	99.3406
785.08	99.2270
785.19	99.3829
785.31	99.3177
785.43	99.2670
785.54	99.2586
785.66	98.9235
785.77	99.0425
785.89	98.8997
786.01	99.2589
786.12	99.0471
786.24	99.3082
786.35	98.9800
786.47	99.2318
786.59	99.1288
786.70	99.5725
786.82	99.4614
786.93	99.3161
787.05	99.1222
787.17	99.3822
787.28	99.0719
787.40	99.0714
787.51	99.5287
787.63	99.2823
787.75	98.9243
787.86	99.2847
787.98	99.5166
788.09	98.9334
788.21	99.1285
788.33	99.8742
788.44	99.6339
788.56	99.9210
788.67	100.0792
788.79	100.3253
788.91	100.2314
789.02	99.8170
789.14	99.2791
789.25	99.5106
789.37	99.2300
789.48	99.0673
789.60	99.3498
789.72	99.1772
789.83	99.4106
789.95	99.7615
790.06	99.0860
790.18	99.0158
790.30	99.0914
790.41	98.5968
790.53	98.3444
790.64	98.6121
790.76	98.8590
790.87	98.9037
790.99	99.0219
791.11	99.1249
791.22	99.0610
791.34	99.0534
791.45	99.3542
791.57	99.5735
791.68	99.0006
791.80	99.1632
791.92	99.4752
792.03	99.5784
792.15	99.5042
792.26	99.7844
792.38	99.7793
792.49	99.7435
792.61	99.8303
792.73	100.2705
792.84	102.0530
792.96	97.1906
793.07	97.5542
793.19	98.3890
793.30	98.5453
793.42	97.4479
793.54	101.3031
793.65	100.9546
793.77	100.2812
793.88	99.4825
794.00	99.0675
794.11	99.8050
794.23	99.9568
794.34	100.0883
794.46	99.2161
794.58	98.7019
794.69	99.7164
794.81	99.9627
794.92	98.5101
795.04	99.0366
795.15	99.3165
795.27	99.0018
795.39	98.6370
795.50	99.7128
795.62	100.1646
795.73	100.1724
795.85	99.3479
795.96	99.4265
796.08	99.3491
796.19	99.4636
796.31	99.5351
796.42	99.5835
796.54	99.5716
796.66	99.9228
796.77	99.0102
796.89	99.4494
797.00	99.9944
797.12	99.3789
797.23	98.6762
797.35	99.1524
797.46	98.5856
797.58	98.6360
797.69	98.9891
797.81	99.4254
797.93	99.6931
798.04	99.3483
798.16	99.3945
798.27	99.4569
798.39	99.4530
798.50	99.5505
798.62	99.3249
798.73	99.2854
798.85	99.2454
798.96	98.7109
799.08	98.4692
799.19	99.2757
799.31	99.6118
799.43	99.5089
799.54	99.3496
799.66	99.5879
799.77	100.1563
799.89	99.6727
800.00	99.0981
800.12	98.9717
800.23	99.2566
800.35	98.9270
800.46	98.4870
800.58	98.9125
800.69	99.5539
800.81	98.6726
800.92	98.6129
801.04	99.3697
801.16	99.6403
801.27	99.6022
801.39	100.1332
801.50	99.5273
801.62	98.9928
801.73	99.4619
801.85	99.3597
801.96	98.9531
802.08	99.9828
802.19	100.4020
802.31	99.3257
802.42	99.1737
802.54	99.8929
802.65	98.9115
802.77	99.3941
802.88	99.2254
803.00	99.7555
803.11	99.5805
803.23	99.6787
803.34	99.2731
803.46	99.5359
803.57	99.6321
803.69	99.1091
803.80	99.5929
803.92	99.4841
804.03	99.6700
804.15	99.2567
804.26	100.0413
804.38	99.6294
804.50	99.2343
804.61	99.2790
804.73	99.9306
804.84	99.5391
804.96	99.8132
805.07	99.9635
805.19	99.8330
805.30	99.3694
805.42	99.2384
805.53	99.2803
805.65	99.6659
805.76	99.8127
805.88	99.5218
805.99	99.8344
806.11	99.6968
806.22	99.4859
806.34	99.7412
806.45	99.5569
806.57	99.7074
806.68	99.4381
806.80	99.1054
806.91	99.3508
807.03	99.9290
807.14	99.7846
807.26	99.6741
807.37	100.4179
807.49	99.7653
807.60	99.0014
807.72	99.0875
807.83	99.6618
807.95	99.1750
808.06	99.0957
808.17	99.8904
808.29	99.4381
808.40	98.8527
808.52	98.4662
808.63	98.9929
808.75	98.4744
808.86	98.6189
808.98	98.7745
809.09	99.3307
809.21	99.0062
809.32	99.9948
809.44	99.9161
809.55	100.5449
809.67	100.0701
809.78	99.6228
809.90	99.1661
810.01	98.4210
810.13	98.2794
810.24	98.8923
810.36	99.4989
810.47	98.9252
810.59	99.0806
810.70	99.2168
810.82	99.1406
810.93	99.2720
811.05	99.7416
811.16	100.0542
811.27	98.7387
811.39	99.0117
811.50	99.8832
811.62	99.5103
811.73	99.5728
811.85	100.3225
811.96	99.9470
812.08	99.2273
812.19	99.5976
812.31	100.4263
812.42	100.5129
812.54	99.9968
812.65	99.7336
812.77	99.4829
812.88	98.9107
813.00	99.6129
813.11	100.2838
813.22	100.6981
813.34	100.0363
813.45	99.2573
813.57	99.1500
813.68	99.7690
813.80	99.9810
813.91	99.5371
814.03	100.7261
814.14	100.0774
814.26	99.0337
814.37	98.8907
814.49	100.1430
814.60	99.3082
814.71	99.7714
814.83	99.7807
814.94	98.8751
815.06	99.2029
815.17	100.3418
815.29	98.5758
815.40	98.9224
815.52	99.9959
815.63	99.2671
815.75	99.4786
815.86	100.8300
815.97	100.0762
816.09	99.1189
816.20	100.8115
816.32	99.7464
816.43	100.1652
816.55	99.2246
816.66	99.9760
816.78	98.7772
816.89	99.5033
817.00	99.8059
817.12	100.3431
817.23	99.9662
817.35	101.0379
817.46	99.1478
817.58	99.1039
817.69	100.1101
817.81	99.9549
817.92	98.5226
818.03	100.5936
818.15	100.5789
818.26	100.4747
818.38	106.3853
818.49	114.3370
818.61	96.4172
818.72	99.7166
818.83	108.4035
818.95	104.2984
819.06	95.6103
819.18	114.6542
819.29	110.7552
819.41	101.6152
819.52	100.0452
819.64	101.9763
819.75	101.8855
819.86	100.3945
819.98	100.8500
820.09	101.9203
820.21	99.6971
820.32	97.7064
820.44	100.7648
820.55	100.5971
820.66	99.7734
820.78	100.3662
820.89	102.4393
821.01	100.4611
821.12	101.9821
821.23	99.0463
821.35	98.4546
821.46	99.6703
821.58	101.0477
821.69	97.8343
821.81	99.5893
821.92	98.9945
822.03	99.4359
822.15	99.1429
822.26	99.2615
822.38	99.2980
822.49	100.1205
822.61	96.9728
822.72	96.1475
822.83	99.3928
822.95	98.6166
823.06	97.0719
823.18	97.9486
823.29	99.3573
823.40	101.7646
823.52	97.7798
823.63	99.9665
823.75	104.4534
823.86	100.0277
823.97	98.6335
824.09	104.3272
824.20	106.1174
824.32	102.0819
824.43	100.8277
824.55	101.1459
824.66	102.7124
824.77	98.0833
824.89	99.0260
825.00	102.0907
825.12	101.0062
825.23	101.8437
825.34	99.6796
825.46	98.1522
825.57	103.5327
825.69	100.4070
825.80	100.0357
825.91	102.0586
826.03	105.7302
826.14	100.0077
826.26	100.4998
826.37	96.7209
826.48	104.6316
826.60	100.2212
826.71	100.8000
826.83	93.4347
826.94	91.1125
827.05	89.7966
827.17	92.3133
827.28	96.2820
827.39	101.4840
827.51	104.9941
827.62	102.7454
827.74	109.2727
827.85	108.1529
827.96	91.5877
828.08	103.9116
828.19	137.3673
828.31	119.1801
828.42	105.7624
828.53	121.6858
828.65	28.8212
828.76	0.0000
828.87	0.0000
828.99	0.0000
