Wavelength (nm)	Reflectance (%)
377.35	0.0000
377.48	0.0000
377.62	0.0000
377.75	22.6383
377.88	0.0000
378.02	127.2381
378.15	200.0000
378.28	200.0000
378.41	200.0000
378.55	80.1176
378.68	0.0000
378.81	59.4286
378.95	200.0000
379.08	200.0000
379.21	200.0000
379.35	0.0000
379.48	99.4884
379.61	160.9379
379.74	120.7747
379.88	49.0732
380.01	86.1134
380.14	115.9909
380.28	69.2159
380.41	64.9853
380.54	149.7315
380.68	140.2080
380.81	92.0132
380.94	78.1063
381.07	106.7564
381.21	113.6778
381.34	64.0375
381.47	89.1407
381.61	148.3908
381.74	129.7464
381.87	55.7778
382.00	119.5242
382.14	145.2126
382.27	81.6501
382.40	58.7714
382.54	108.0576
382.67	118.0875
382.80	83.8336
382.93	110.0561
383.07	118.4175
383.20	109.5370
383.33	135.1420
383.47	95.5776
383.60	94.6111
383.73	123.9568
383.86	126.3881
384.00	84.9848
384.13	118.3580
384.26	130.6462
384.40	102.2100
384.53	86.1557
384.66	101.7896
384.79	119.2205
384.93	105.3153
385.06	82.8548
385.19	85.9838
385.33	92.4935
385.46	69.1127
385.59	83.0014
385.72	123.1857
385.86	116.0061
385.99	109.7975
386.12	112.2720
386.25	81.8820
386.39	86.9787
386.52	102.7335
386.65	97.6602
386.79	79.3333
386.92	117.4299
387.05	127.7254
387.18	101.4079
387.32	93.2460
387.45	134.5982
387.58	124.8928
387.71	105.3652
387.85	111.1911
387.98	108.7967
388.11	107.9254
388.25	97.0430
388.38	86.5361
388.51	98.9987
388.64	123.1623
388.78	126.9091
388.91	101.1765
389.04	126.6152
389.17	120.2158
389.31	87.6330
389.44	78.8497
389.57	109.8976
389.70	103.7828
389.84	108.0472
389.97	110.3234
390.10	113.4201
390.24	115.2424
390.37	92.7945
390.50	90.2451
390.63	96.0724
390.77	89.0856
390.90	91.5006
391.03	109.0183
391.16	100.9169
391.30	103.6035
391.43	118.4327
391.56	96.5928
391.69	99.8890
391.83	117.9142
391.96	95.2583
392.09	84.8249
392.22	112.7799
392.36	117.4844
392.49	88.8277
392.62	93.3100
392.75	101.5303
392.89	97.0065
393.02	99.7361
393.15	86.8235
393.28	106.7561
393.42	96.9189
393.55	95.7649
393.68	83.4161
393.81	106.9570
393.95	106.6855
394.08	103.8493
394.21	96.1833
394.34	95.3181
394.48	97.5600
394.61	87.0856
394.74	92.5582
394.87	90.1804
395.01	110.5255
395.14	96.6242
395.27	88.3660
395.40	96.1546
395.54	102.8537
395.67	79.5178
395.80	91.2727
395.93	105.3646
396.07	105.0766
396.20	100.8726
396.33	104.8376
396.46	108.8007
396.59	116.9948
396.73	99.3322
396.86	99.2416
396.99	114.2087
397.12	130.4391
397.26	80.2500
397.39	82.3828
397.52	98.3746
397.65	92.3704
397.79	63.5966
397.92	108.3262
398.05	122.1846
398.18	101.1150
398.32	90.9530
398.45	98.4202
398.58	101.7244
398.71	95.8794
398.84	94.1159
398.98	93.8055
399.11	99.8482
399.24	98.9215
399.37	100.9604
399.51	108.1583
399.64	110.6732
399.77	107.8103
399.90	111.5500
400.03	100.3252
400.17	93.3748
400.30	97.9130
400.43	97.2063
400.56	90.6193
400.70	106.7483
400.83	112.5082
400.96	109.0550
401.09	103.0648
401.23	103.9012
401.36	96.0989
401.49	96.3788
401.62	98.9278
401.75	104.8107
401.89	98.8551
402.02	96.4282
402.15	95.4986
402.28	97.3973
402.41	102.3562
402.55	93.3231
402.68	91.6513
402.81	99.8491
402.94	104.6662
403.08	94.1730
403.21	98.6949
403.34	108.8374
403.47	98.8761
403.60	85.9417
403.74	95.9138
403.87	101.1117
404.00	100.7995
404.13	109.1188
404.26	110.4301
404.40	106.1180
404.53	112.8793
404.66	101.0670
404.79	95.2769
404.93	108.2519
405.06	106.2036
405.19	96.7769
405.32	98.8892
405.45	106.1328
405.59	106.1671
405.72	82.2551
405.85	92.4379
405.98	105.4304
406.11	99.7809
406.25	84.5837
406.38	107.5932
406.51	105.5172
406.64	100.0304
406.77	95.7566
406.91	104.2139
407.04	105.7456
407.17	103.6558
407.30	93.2107
407.43	93.2964
407.57	98.7589
407.70	100.8714
407.83	102.6050
407.96	99.9836
408.09	108.6935
408.23	109.4372
408.36	91.2147
408.49	86.6073
408.62	103.7947
408.75	97.6076
408.89	91.4149
409.02	99.2983
409.15	99.9713
409.28	103.8907
409.41	92.7573
409.55	92.7614
409.68	106.7623
409.81	104.4846
409.94	94.1098
410.07	110.2650
410.20	111.4517
410.34	104.4109
410.47	102.1545
410.60	106.8947
410.73	101.3168
410.86	102.3717
411.00	102.7569
411.13	105.0397
411.26	97.0843
411.39	98.0330
411.52	95.2734
411.66	97.8460
411.79	96.6544
411.92	102.1469
412.05	102.4468
412.18	98.5433
412.31	93.0261
412.45	102.9213
412.58	102.8147
412.71	94.7131
412.84	102.3712
412.97	108.5544
413.11	100.3338
413.24	89.9427
413.37	101.4703
413.50	103.5446
413.63	97.6733
413.76	97.2506
413.90	108.9241
414.03	105.7463
414.16	101.3346
414.29	93.4855
414.42	98.4691
414.56	95.9190
414.69	95.2273
414.82	92.2493
414.95	101.1322
415.08	94.1720
415.21	102.4844
415.35	99.6414
415.48	96.6967
415.61	107.5185
415.74	112.2319
415.87	91.3977
416.00	96.6233
416.14	108.2303
416.27	100.5682
416.40	97.1831
416.53	110.1259
416.66	113.7089
416.79	103.6959
416.93	101.1170
417.06	103.6716
417.19	104.6731
417.32	105.1892
417.45	101.4774
417.58	102.4464
417.72	101.6159
417.85	94.7823
417.98	92.8295
418.11	100.3101
418.24	99.7982
418.37	101.3305
418.51	99.8350
418.64	96.5129
418.77	102.2815
418.90	102.7946
419.03	95.1921
419.16	105.8325
419.29	112.9658
419.43	95.0272
419.56	92.8639
419.69	103.8995
419.82	101.1249
419.95	94.3539
420.08	97.9384
420.22	97.5880
420.35	93.6360
420.48	98.4965
420.61	93.4814
420.74	103.9592
420.87	108.9181
421.00	104.7070
421.14	93.2605
421.27	98.1215
421.40	96.9052
421.53	95.8431
421.66	99.4907
421.79	104.3273
421.93	108.3659
422.06	103.8165
422.19	100.8030
422.32	101.3846
422.45	105.5308
422.58	98.7576
422.71	96.8287
422.85	101.5710
422.98	103.1780
423.11	100.6392
423.24	102.6800
423.37	104.4352
423.50	101.8845
423.63	100.9398
423.77	98.8150
423.90	95.4908
424.03	97.6222
424.16	101.4125
424.29	101.8052
424.42	104.9508
424.55	106.4932
424.69	106.1541
424.82	106.6629
424.95	101.2975
425.08	99.6718
425.21	101.8251
425.34	100.5752
425.47	99.0608
425.60	102.9752
425.74	102.4739
425.87	100.3292
426.00	102.7248
426.13	101.7598
426.26	101.6142
426.39	97.1855
426.52	99.9187
426.66	104.1560
426.79	95.4618
426.92	91.5227
427.05	98.3266
427.18	98.8927
427.31	95.2226
427.44	100.1146
427.57	106.0776
427.71	103.6793
427.84	97.5662
427.97	94.9814
428.10	100.9246
428.23	106.4270
428.36	99.4561
428.49	98.3468
428.62	101.7301
428.76	103.4703
428.89	95.9577
429.02	96.8065
429.15	104.1439
429.28	103.7232
429.41	99.6381
429.54	96.7535
429.67	103.4937
429.81	104.7814
429.94	99.8838
430.07	93.1255
430.20	97.3485
430.33	97.6465
430.46	94.8570
430.59	100.4916
430.72	104.6345
430.85	105.2470
430.99	101.2789
431.12	97.2988
431.25	97.4489
431.38	100.9429
431.51	94.1978
431.64	94.5264
431.77	99.8534
431.90	100.9404
432.03	97.7306
432.17	100.2133
432.30	103.8598
432.43	101.8700
432.56	98.6674
432.69	96.4025
432.82	98.8598
432.95	97.8926
433.08	98.4447
433.21	97.9371
433.35	101.9629
433.48	100.3557
433.61	101.5261
433.74	99.0949
433.87	102.1969
434.00	101.5385
434.13	101.6865
434.26	98.8425
434.39	102.2366
434.53	100.5456
434.66	101.9293
434.79	97.6273
434.92	101.7153
435.05	101.6463
435.18	96.2515
435.31	93.7154
435.44	99.0916
435.57	100.3636
435.70	97.6920
435.84	95.6639
435.97	98.4700
436.10	99.8930
436.23	95.7665
436.36	95.6841
436.49	101.8601
436.62	98.4408
436.75	95.9208
436.88	96.3123
437.01	100.3564
437.14	100.7228
437.28	97.8152
437.41	95.5299
437.54	98.6853
437.67	100.8631
437.80	92.7919
437.93	94.1237
438.06	101.1808
438.19	100.7814
438.32	95.4308
438.45	98.9979
438.58	100.7049
438.72	98.8667
438.85	96.5502
438.98	95.9817
439.11	98.9106
439.24	99.6873
439.37	95.3208
439.50	96.8373
439.63	99.8586
439.76	101.0945
439.89	100.6280
440.02	99.7327
440.15	99.6666
440.29	101.2382
440.42	98.9479
440.55	95.5007
440.68	101.6560
440.81	103.0607
440.94	96.4873
441.07	97.2874
441.20	102.9058
441.33	99.8257
441.46	96.9334
441.59	100.7159
441.72	101.6300
441.85	99.2403
441.99	96.0401
442.12	95.5191
442.25	95.8789
442.38	98.3907
442.51	98.6709
442.64	101.0950
442.77	103.1497
442.90	104.0624
443.03	101.6003
443.16	98.6348
443.29	100.3226
443.42	98.4831
443.55	98.1111
443.68	98.1249
443.82	102.0597
443.95	99.3560
444.08	100.1878
444.21	98.6111
444.34	98.4060
444.47	97.4172
444.60	99.7845
444.73	97.4090
444.86	98.0804
444.99	99.0755
445.12	100.8384
445.25	98.7774
445.38	100.0864
445.51	101.9889
445.64	105.2501
445.78	98.6009
445.91	97.5401
446.04	102.0218
446.17	98.9191
446.30	93.9985
446.43	100.8187
446.56	103.5657
446.69	97.7462
446.82	96.5059
446.95	98.4190
447.08	98.8489
447.21	96.9356
447.34	98.0136
447.47	100.6238
447.60	98.0978
447.73	97.0116
447.86	98.7776
447.99	99.2515
448.13	100.7542
448.26	101.5771
448.39	99.8140
448.52	100.7974
448.65	101.6094
448.78	98.7198
448.91	101.2210
449.04	101.2360
449.17	99.7260
449.30	100.6524
449.43	99.3494
449.56	97.7894
449.69	101.7960
449.82	100.5376
449.95	98.1752
450.08	101.1175
450.21	102.0838
450.34	98.3985
450.47	100.4700
450.60	102.9483
450.73	104.2348
450.87	102.9425
451.00	98.3801
451.13	99.6644
451.26	98.3849
451.39	96.6951
451.52	97.0013
451.65	102.7254
451.78	103.5565
451.91	101.2504
452.04	99.2888
452.17	101.9175
452.30	102.4796
452.43	98.0375
452.56	102.2789
452.69	101.4532
452.82	98.9371
452.95	99.5854
453.08	98.6393
453.21	97.7927
453.34	100.0710
453.47	97.1038
453.60	95.2066
453.73	98.2462
453.86	96.8452
453.99	97.6330
454.12	100.1448
454.25	101.6817
454.38	100.8342
454.52	101.4170
454.65	101.9756
454.78	101.4554
454.91	100.4467
455.04	101.6996
455.17	98.4770
455.30	98.1594
455.43	100.8050
455.56	99.3577
455.69	97.5083
455.82	101.7093
455.95	101.4646
456.08	100.4630
456.21	102.3245
456.34	102.6863
456.47	102.0031
456.60	102.0314
456.73	99.9052
456.86	99.5638
456.99	100.6319
457.12	98.4358
457.25	97.2869
457.38	98.1774
457.51	98.1388
457.64	97.5325
457.77	99.0487
457.90	99.4908
458.03	99.6079
458.16	98.6379
458.29	99.3025
458.42	99.8462
458.55	100.5739
458.68	98.8959
458.81	95.8554
458.94	97.6034
459.07	99.2075
459.20	98.3749
459.33	97.6068
459.46	100.7923
459.59	100.8422
459.72	97.3240
459.85	96.5685
459.98	99.3718
460.11	100.9730
460.24	97.0093
460.37	97.8823
460.50	99.6032
460.63	99.5359
460.76	96.6973
460.89	97.8195
461.02	99.4549
461.15	99.2462
461.28	96.5255
461.41	99.1707
461.54	100.4075
461.67	98.8268
461.80	98.9864
461.93	100.3661
462.06	99.8335
462.19	100.5767
462.32	99.4507
462.45	99.1513
462.58	99.4997
462.71	99.7538
462.84	97.8748
462.97	98.5116
463.10	97.4304
463.23	97.8122
463.36	98.5831
463.49	98.8047
463.62	99.6277
463.75	100.8126
463.88	102.8255
464.01	98.7657
464.14	99.8611
464.27	100.9455
464.40	99.7543
464.53	97.8591
464.66	99.4922
464.79	99.7288
464.92	98.7115
465.05	99.0483
465.18	99.1558
465.31	100.6499
465.44	100.4818
465.57	97.7101
465.70	98.5612
465.83	100.3795
465.96	98.7567
466.09	97.6162
466.22	101.0920
466.35	101.2668
466.48	99.8005
466.61	99.9897
466.74	99.6856
466.87	98.6878
467.00	97.2315
467.13	97.9397
467.26	99.5532
467.39	100.2229
467.52	98.5786
467.65	99.6426
467.78	98.6173
467.91	97.3737
468.04	97.4467
468.17	99.9967
468.30	100.1945
468.43	99.8440
468.56	99.2339
468.69	100.4587
468.82	100.0256
468.95	100.0814
469.08	101.1672
469.21	100.5667
469.34	98.4500
469.47	99.3190
469.60	99.0216
469.73	97.7790
469.86	100.7330
469.99	102.0153
470.11	99.9869
470.24	99.7643
470.37	101.1218
470.50	100.5472
470.63	99.5757
470.76	99.0244
470.89	100.5955
471.02	100.9003
471.15	98.3615
471.28	97.8090
471.41	99.9455
471.54	100.0412
471.67	97.8832
471.80	98.9735
471.93	100.6186
472.06	101.2544
472.19	98.1319
472.32	98.4688
472.45	99.2046
472.58	98.6262
472.71	97.7335
472.84	100.0288
472.97	99.8427
473.10	100.6222
473.23	99.6084
473.36	98.9507
473.49	98.3062
473.62	98.6409
473.74	98.1070
473.87	99.9012
474.00	99.9705
474.13	99.5522
474.26	100.2961
474.39	100.0774
474.52	98.7233
474.65	100.1131
474.78	101.0414
474.91	99.1893
475.04	98.9925
475.17	99.9175
475.30	98.4418
475.43	98.1950
475.56	99.8147
475.69	100.7054
475.82	99.6201
475.95	100.4566
476.08	100.5142
476.21	100.3608
476.34	98.5904
476.46	99.5837
476.59	99.1089
476.72	99.2671
476.85	98.0429
476.98	98.3086
477.11	98.8259
477.24	98.5226
477.37	97.5061
477.50	98.8206
477.63	99.4829
477.76	98.9597
477.89	98.7283
478.02	98.9943
478.15	99.0772
478.28	99.6233
478.41	98.5049
478.54	99.2655
478.66	99.6906
478.79	99.6922
478.92	99.0479
479.05	100.0376
479.18	99.3177
479.31	99.4382
479.44	99.1186
479.57	98.8965
479.70	99.4219
479.83	100.1533
479.96	98.3773
480.09	97.9547
480.22	98.4311
480.35	97.9462
480.48	97.8798
480.60	98.7062
480.73	99.3652
480.86	99.4401
480.99	99.1496
481.12	98.0960
481.25	99.3734
481.38	99.4329
481.51	98.6716
481.64	98.8285
481.77	99.9307
481.90	99.5567
482.03	98.6968
482.16	99.2793
482.29	99.2778
482.41	99.4056
482.54	99.3119
482.67	99.7264
482.80	100.2231
482.93	99.8097
483.06	99.3128
483.19	99.6198
483.32	100.1011
483.45	99.3281
483.58	99.1785
483.71	99.0322
483.84	98.6040
483.97	98.3667
484.09	98.5208
484.22	99.2138
484.35	99.3011
484.48	99.0631
484.61	98.9445
484.74	99.1300
484.87	98.7927
485.00	99.1984
485.13	99.3429
485.26	99.9261
485.39	99.0549
485.52	98.7821
485.64	98.1584
485.77	98.6638
485.90	98.2683
486.03	99.3746
486.16	99.5277
486.29	99.6878
486.42	99.5222
486.55	99.0425
486.68	98.4231
486.81	98.9633
486.94	98.8021
487.06	98.0966
487.19	98.4507
487.32	98.8253
487.45	98.3682
487.58	98.9958
487.71	99.2695
487.84	98.9260
487.97	98.6609
488.10	99.0965
488.23	98.3576
488.35	98.7315
488.48	99.2308
488.61	99.4989
488.74	99.2694
488.87	99.0019
489.00	98.9330
489.13	99.0669
489.26	98.9043
489.39	98.7050
489.52	99.2863
489.64	98.9995
489.77	98.6618
489.90	98.3232
490.03	98.4764
490.16	98.6891
490.29	98.3268
490.42	98.7204
490.55	98.9600
490.68	99.5475
490.81	98.8290
490.93	99.3162
491.06	99.1596
491.19	98.8370
491.32	98.4324
491.45	98.7834
491.58	98.8493
491.71	99.0616
491.84	98.7788
491.97	98.5703
492.09	99.1234
492.22	98.8801
492.35	98.7776
492.48	99.7055
492.61	99.5126
492.74	99.1555
492.87	99.4966
493.00	98.9492
493.12	98.5183
493.25	98.9338
493.38	99.3213
493.51	98.9402
493.64	99.1718
493.77	99.3637
493.90	98.8529
494.03	98.3905
494.16	98.8564
494.28	99.3746
494.41	98.6591
494.54	98.7480
494.67	99.3182
494.80	98.9285
494.93	98.5036
495.06	99.2946
495.19	99.7832
495.31	99.5789
495.44	99.5210
495.57	99.7515
495.70	99.9832
495.83	99.9115
495.96	99.1411
496.09	98.8956
496.22	99.2927
496.34	98.9915
496.47	98.3631
496.60	98.5084
496.73	99.1952
496.86	98.4307
496.99	98.5969
497.12	98.9824
497.24	99.1063
497.37	98.9696
497.50	99.3531
497.63	98.6179
497.76	98.2182
497.89	99.1325
498.02	99.1387
498.15	98.8007
498.27	99.0266
498.40	99.4814
498.53	98.8401
498.66	99.2186
498.79	99.2941
498.92	99.4210
499.05	99.5380
499.17	98.9373
499.30	98.4832
499.43	99.0604
499.56	99.0252
499.69	98.8498
499.82	99.5952
499.95	99.8098
500.07	99.4107
500.20	98.7891
500.33	98.9898
500.46	99.2498
500.59	99.0895
500.72	98.8837
500.85	99.4634
500.97	99.8647
501.10	99.6479
501.23	99.0752
501.36	99.0452
501.49	99.4104
501.62	98.4587
501.75	98.6886
501.87	99.0713
502.00	99.0296
502.13	98.9609
502.26	99.2980
502.39	99.1536
502.52	99.1486
502.64	98.8304
502.77	98.6861
502.90	99.0559
503.03	98.9072
503.16	98.5104
503.29	99.0070
503.42	99.2746
503.54	99.1902
503.67	98.6345
503.80	99.6651
503.93	99.7967
504.06	99.1502
504.19	99.0339
504.31	99.2792
504.44	98.6579
504.57	98.9077
504.70	99.2163
504.83	99.2290
504.96	99.4669
505.08	98.9823
505.21	98.5463
505.34	98.7722
505.47	98.8537
505.60	98.9912
505.73	99.0390
505.85	99.4659
505.98	99.8005
506.11	99.7416
506.24	99.4974
506.37	99.5759
506.50	99.3394
506.62	98.8901
506.75	98.4374
506.88	98.7387
507.01	99.0395
507.14	98.9958
507.27	99.0247
507.39	99.5049
507.52	98.8880
507.65	99.1957
507.78	98.9198
507.91	98.7340
508.04	98.5097
508.16	98.8962
508.29	99.1382
508.42	99.5547
508.55	99.1063
508.68	99.2513
508.81	99.2965
508.93	98.7430
509.06	98.3969
509.19	99.0748
509.32	98.7766
509.45	98.8555
509.57	98.9717
509.70	99.2200
509.83	99.0584
509.96	99.2811
510.09	99.1360
510.22	99.2535
510.34	98.6881
510.47	98.7650
510.60	98.6901
510.73	98.6250
510.86	98.5959
510.98	98.8185
511.11	98.6584
511.24	98.8768
511.37	98.9998
511.50	98.9519
511.63	99.2369
511.75	99.2989
511.88	99.1853
512.01	99.1287
512.14	99.1989
512.27	99.2209
512.39	99.2448
512.52	99.3294
512.65	99.3956
512.78	99.1585
512.91	98.9312
513.03	98.7554
513.16	98.7635
513.29	98.6355
513.42	98.5584
513.55	99.0327
513.67	99.5041
513.80	99.2552
513.93	99.0356
514.06	99.2552
514.19	98.7010
514.31	98.5927
514.44	98.5365
514.57	98.3974
514.70	98.6510
514.83	99.0293
514.95	98.8537
515.08	98.9907
515.21	99.3216
515.34	99.2570
515.47	99.0109
515.59	98.9981
515.72	98.6603
515.85	98.9027
515.98	98.6945
516.11	98.6545
516.23	98.9161
516.36	99.5099
516.49	99.1165
516.62	98.8680
516.75	99.4534
516.87	99.3081
517.00	98.6245
517.13	98.8297
517.26	99.6262
517.39	99.0979
517.51	98.5259
517.64	99.1749
517.77	99.0295
517.90	98.5979
518.02	98.9603
518.15	99.2899
518.28	98.9978
518.41	98.9816
518.54	98.9210
518.66	98.8283
518.79	98.9317
518.92	98.8729
519.05	98.6888
519.18	98.7390
519.30	98.6185
519.43	98.7444
519.56	98.6274
519.69	99.0975
519.81	99.3001
519.94	99.1745
520.07	98.9885
520.20	99.1004
520.33	99.0182
520.45	98.7536
520.58	98.6483
520.71	98.7500
520.84	99.0672
520.96	99.1819
521.09	99.0483
521.22	99.0922
521.35	99.3938
521.48	99.4063
521.60	99.1301
521.73	98.6852
521.86	98.9314
521.99	98.8839
522.11	98.5406
522.24	98.7713
522.37	98.9904
522.50	99.3253
522.62	99.1312
522.75	99.4014
522.88	99.3011
523.01	99.5277
523.14	98.8714
523.26	99.1620
523.39	98.7506
523.52	98.6923
523.65	98.7902
523.77	98.8756
523.90	98.4285
524.03	98.6338
524.16	98.7238
524.28	98.6768
524.41	99.0838
524.54	99.2719
524.67	99.0755
524.79	98.7028
524.92	98.9515
525.05	98.5568
525.18	98.8078
525.31	98.4497
525.43	99.0022
525.56	99.3676
525.69	99.3703
525.82	98.9234
525.94	99.6542
526.07	99.6048
526.20	98.8338
526.33	98.8629
526.45	99.0789
526.58	99.0854
526.71	98.7414
526.84	99.1344
526.96	99.1103
527.09	99.1331
527.22	99.2778
527.35	99.0978
527.47	99.1710
527.60	99.1283
527.73	98.8883
527.86	98.6747
527.98	99.1611
528.11	98.7648
528.24	99.1365
528.37	99.2447
528.49	98.9100
528.62	99.1984
528.75	99.4672
528.88	99.2322
529.00	99.5245
529.13	99.9627
529.26	99.2300
529.39	99.0085
529.51	99.3793
529.64	99.3056
529.77	99.0311
529.90	99.3724
530.02	99.7373
530.15	99.4664
530.28	99.2790
530.40	99.2672
530.53	99.3591
530.66	98.8378
530.79	98.7655
530.91	98.6604
531.04	98.7417
531.17	98.4886
531.30	98.7431
531.42	98.2381
531.55	98.5369
531.68	98.7347
531.81	98.7877
531.93	99.0244
532.06	99.4757
532.19	99.2033
532.31	98.9669
532.44	99.2820
532.57	99.1044
532.70	98.9886
532.82	98.8891
532.95	98.7741
533.08	98.6818
533.21	98.8628
533.33	99.0746
533.46	98.8320
533.59	99.2452
533.71	99.3582
533.84	99.2890
533.97	99.2201
534.10	99.5640
534.22	99.3974
534.35	98.8725
534.48	98.7981
534.61	98.8495
534.73	98.7089
534.86	98.4095
534.99	98.7341
535.11	98.7858
535.24	98.9283
535.37	99.3148
535.50	99.4479
535.62	99.3086
535.75	99.3110
535.88	99.0472
536.00	98.6802
536.13	98.6854
536.26	98.8217
536.39	98.4479
536.51	98.5931
536.64	98.8985
536.77	98.9211
536.89	98.7386
537.02	99.0232
537.15	98.8513
537.28	98.8461
537.40	98.6354
537.53	98.6344
537.66	98.7175
537.78	98.9476
537.91	98.8990
538.04	99.5248
538.17	99.4437
538.29	99.0480
538.42	98.9314
538.55	99.1339
538.67	98.8279
538.80	99.3673
538.93	99.5140
539.05	99.4497
539.18	99.1989
539.31	99.4843
539.44	99.1352
539.56	99.3541
539.69	99.7162
539.82	99.8902
539.94	99.2162
540.07	99.2631
540.20	99.2274
540.32	98.8511
540.45	98.4149
540.58	99.0340
540.71	99.2420
540.83	99.2904
540.96	99.0672
541.09	99.1210
541.21	99.1337
541.34	99.0727
541.47	98.9385
541.59	98.8838
541.72	99.1571
541.85	99.3090
541.98	99.2477
542.10	98.8998
542.23	99.2974
542.36	99.3701
542.48	99.1884
542.61	99.0224
542.74	99.4533
542.86	99.5146
542.99	99.2661
543.12	99.1187
543.24	99.0242
543.37	98.9896
543.50	98.8319
543.62	99.1331
543.75	99.2899
543.88	99.3617
544.01	99.2418
544.13	99.3659
544.26	99.2517
544.39	98.9871
544.51	98.9735
544.64	99.2189
544.77	99.0222
544.89	99.1052
545.02	98.9913
545.15	98.7353
545.27	98.6597
545.40	98.6666
545.53	98.6645
545.65	99.0650
545.78	99.4030
545.91	99.2045
546.03	99.4621
546.16	99.4105
546.29	99.1691
546.41	99.3402
546.54	99.3120
546.67	98.9402
546.79	99.1441
546.92	99.0714
547.05	98.9123
547.17	98.9845
547.30	99.3332
547.43	98.9907
547.56	99.1267
547.68	99.0387
547.81	99.0287
547.94	98.9052
548.06	98.6824
548.19	98.7138
548.32	98.9680
548.44	98.9830
548.57	98.7919
548.70	99.0814
548.82	99.1455
548.95	99.2093
549.08	98.9101
549.20	99.0550
549.33	99.0867
549.45	99.1657
549.58	98.7644
549.71	99.3292
549.83	99.2894
549.96	99.1920
550.09	98.9219
550.21	99.2710
550.34	99.0843
550.47	99.4783
550.59	99.4888
550.72	99.1390
550.85	99.0807
550.97	99.2500
551.10	98.7439
551.23	98.7477
551.35	99.3312
551.48	99.4719
551.61	99.0778
551.73	99.1800
551.86	99.2938
551.99	98.8839
552.11	98.4872
552.24	98.7915
552.37	98.8922
552.49	98.8112
552.62	99.0811
552.75	99.4140
552.87	99.4142
553.00	99.5456
553.12	99.5292
553.25	99.3666
553.38	99.1826
553.50	99.2984
553.63	99.0707
553.76	99.1085
553.88	99.3390
554.01	99.3102
554.14	98.9689
554.26	99.2728
554.39	99.3281
554.52	99.3670
554.64	99.3973
554.77	99.5210
554.89	99.3566
555.02	99.3582
555.15	99.2304
555.27	98.9685
555.40	99.0975
555.53	99.2400
555.65	98.9963
555.78	98.8115
555.91	99.2379
556.03	99.3435
556.16	99.0634
556.29	98.9646
556.41	99.3182
556.54	99.3122
556.66	98.7547
556.79	98.8197
556.92	99.3723
557.04	99.1441
557.17	98.9256
557.30	99.2761
557.42	99.1546
557.55	98.8814
557.67	98.8054
557.80	98.7341
557.93	98.9370
558.05	99.0218
558.18	98.8504
558.31	98.7824
558.43	98.9324
558.56	98.8965
558.68	98.8683
558.81	98.6819
558.94	98.9366
559.06	98.9075
559.19	98.7555
559.32	98.7401
559.44	99.0816
559.57	99.0359
559.69	98.9055
559.82	98.9361
559.95	99.2304
560.07	99.1976
560.20	98.9632
560.33	99.2072
560.45	98.8286
560.58	98.7445
560.70	98.8193
560.83	98.9683
560.96	98.7138
561.08	99.2569
561.21	99.4568
561.33	99.1538
561.46	99.2953
561.59	99.5186
561.71	99.4112
561.84	99.1020
561.97	99.5701
562.09	99.5943
562.22	99.4449
562.34	99.4314
562.47	99.5156
562.60	99.4028
562.72	99.1913
562.85	99.2614
562.97	99.2047
563.10	99.1685
563.23	98.9481
563.35	98.9355
563.48	98.7946
563.60	98.9783
563.73	99.0595
563.86	99.2075
563.98	99.4254
564.11	99.3095
564.23	99.1379
564.36	98.9565
564.49	99.0491
564.61	99.0420
564.74	99.1421
564.86	99.1312
564.99	99.0802
565.12	99.0525
565.24	98.9342
565.37	98.9308
565.49	98.9657
565.62	99.3683
565.75	98.8305
565.87	98.8108
566.00	99.2470
566.12	99.0235
566.25	98.8431
566.38	99.1332
566.50	99.1018
566.63	98.8689
566.75	99.1133
566.88	99.0246
567.01	99.2333
567.13	99.4759
567.26	99.2623
567.38	99.2898
567.51	99.1849
567.64	99.0061
567.76	98.8329
567.89	98.9815
568.01	98.7390
568.14	98.7796
568.26	98.9243
568.39	98.8690
568.52	98.8691
568.64	99.0160
568.77	99.0190
568.89	99.1018
569.02	99.2010
569.15	99.0950
569.27	98.8897
569.40	98.8686
569.52	98.7905
569.65	98.8393
569.77	99.0231
569.90	98.9562
570.03	99.1760
570.15	99.2278
570.28	99.4031
570.40	99.3441
570.53	99.5316
570.66	99.4701
570.78	99.5256
570.91	99.2611
571.03	99.2503
571.16	99.4369
571.28	99.3660
571.41	99.4050
571.54	99.3632
571.66	99.3065
571.79	99.2188
571.91	99.0412
572.04	98.6043
572.16	98.6336
572.29	98.6385
572.42	98.6818
572.54	98.7109
572.67	99.0385
572.79	99.0703
572.92	99.0781
573.04	99.1677
573.17	99.4467
573.29	99.0761
573.42	98.9357
573.55	98.9915
573.67	98.9419
573.80	98.9233
573.92	99.0767
574.05	99.1443
574.17	99.1370
574.30	99.1852
574.43	98.9396
574.55	99.1284
574.68	99.1840
574.80	99.2680
574.93	99.2343
575.05	99.3512
575.18	99.1753
575.30	98.9975
575.43	99.0274
575.56	98.9795
575.68	99.1195
575.81	99.1355
575.93	99.3102
576.06	99.3597
576.18	99.3881
576.31	98.9236
576.43	98.9634
576.56	98.9833
576.69	98.9861
576.81	98.9707
576.94	99.2461
577.06	99.3072
577.19	99.1761
577.31	98.7284
577.44	98.6600
577.56	98.5183
577.69	98.6250
577.82	99.0264
577.94	99.1142
578.07	98.9248
578.19	99.3036
578.32	99.2747
578.44	98.9224
578.57	99.1797
578.69	99.2316
578.82	98.8905
578.94	98.7900
579.07	98.8089
579.19	98.7118
579.32	98.9786
579.45	99.2853
579.57	99.2667
579.70	99.4166
579.82	99.2754
579.95	99.2317
580.07	98.9964
580.20	99.0441
580.32	98.9883
580.45	99.1388
580.57	98.9782
580.70	98.8840
580.82	99.2447
580.95	98.9637
581.08	99.0060
581.20	98.9848
581.33	99.1219
581.45	98.5668
581.58	99.0673
581.70	98.9917
581.83	98.9818
581.95	99.0599
582.08	99.3113
582.20	99.1281
582.33	99.2262
582.45	99.1855
582.58	99.1412
582.70	99.1437
582.83	99.0364
582.95	98.9506
583.08	98.9494
583.21	99.0184
583.33	99.2827
583.46	99.3110
583.58	99.2511
583.71	99.4409
583.83	99.4201
583.96	99.0967
584.08	99.0395
584.21	99.2075
584.33	99.3065
584.46	99.0873
584.58	98.9451
584.71	99.1009
584.83	99.1909
584.96	98.9504
585.08	98.9630
585.21	99.1996
585.33	99.1147
585.46	99.1678
585.58	99.3795
585.71	99.4110
585.83	99.5641
585.96	99.5363
586.08	99.3147
586.21	99.4111
586.33	99.4285
586.46	99.2318
586.59	99.1418
586.71	99.0575
586.84	98.9643
586.96	99.0974
587.09	98.7623
587.21	98.8359
587.34	99.0567
587.46	98.8068
587.59	98.7666
587.71	99.2738
587.84	99.3909
587.96	99.1011
588.09	99.1848
588.21	99.1505
588.34	99.0310
588.46	99.0646
588.59	99.3488
588.71	99.4276
588.84	99.1303
588.96	99.0521
589.09	99.1080
589.21	99.0494
589.34	98.8264
589.46	98.9796
589.59	99.1349
589.71	99.0549
589.84	98.9248
589.96	99.0204
590.09	99.1339
590.21	98.9706
590.34	99.1063
590.46	99.1655
590.59	99.0390
590.71	99.2781
590.84	99.1830
590.96	99.0131
591.09	99.1586
591.21	99.5879
591.34	99.2190
591.46	99.2939
591.59	99.1742
591.71	99.3090
591.83	99.1261
591.96	99.4278
592.08	99.5594
592.21	99.7723
592.33	99.7141
592.46	99.6000
592.58	99.3328
592.71	99.2308
592.83	98.9057
592.96	98.8012
593.08	99.0075
593.21	99.2297
593.33	99.3086
593.46	99.3650
593.58	99.2594
593.71	99.3428
593.83	99.0150
593.96	98.9095
594.08	99.1584
594.21	99.1844
594.33	99.2184
594.46	99.6827
594.58	99.7803
594.71	99.7064
594.83	99.2788
594.96	98.9894
595.08	98.9083
595.20	99.0048
595.33	98.5290
595.45	98.9281
595.58	99.2146
595.70	99.2242
595.83	99.0702
595.95	99.6170
596.08	99.8514
596.20	99.7426
596.33	99.7906
596.45	100.0105
596.58	99.8174
596.70	99.6584
596.83	99.5028
596.95	99.5689
597.08	99.3689
597.20	99.3471
597.32	99.2207
597.45	99.2161
597.57	99.0744
597.70	99.0256
597.82	99.2266
597.95	99.2937
598.07	99.3372
598.20	99.3890
598.32	99.3157
598.45	99.0480
598.57	99.1055
598.70	99.1485
598.82	98.8265
598.94	98.7683
599.07	98.8890
599.19	99.1400
599.32	98.8903
599.44	99.0611
599.57	99.2312
599.69	99.4172
599.82	98.8471
599.94	98.9980
600.07	99.2356
600.19	99.3727
600.31	98.9482
600.44	99.1144
600.56	99.2211
600.69	99.0551
600.81	98.9545
600.94	99.1485
601.06	99.1229
601.19	99.3010
601.31	99.0736
601.44	99.0083
601.56	99.0437
601.68	99.1876
601.81	98.7359
601.93	99.0587
602.06	99.2499
602.18	99.0757
602.31	98.9116
602.43	99.1497
602.56	99.0753
602.68	98.8282
602.80	99.1929
602.93	99.3174
603.05	99.2785
603.18	99.3497
603.30	99.5153
603.43	99.2608
603.55	99.2147
603.68	99.1824
603.80	99.0120
603.92	98.9033
604.05	99.1784
604.17	99.2354
604.30	99.2147
604.42	99.0956
604.55	99.1360
604.67	98.9832
604.79	98.8980
604.92	99.0105
605.04	99.2053
605.17	99.1996
605.29	98.9805
605.42	99.1466
605.54	99.0546
605.66	98.9778
605.79	98.8634
605.91	99.1129
606.04	98.8884
606.16	98.9020
606.29	99.0979
606.41	99.2982
606.53	99.1887
606.66	99.4578
606.78	99.5405
606.91	99.3830
607.03	99.3998
607.16	99.3582
607.28	99.1410
607.40	99.2239
607.53	99.3492
607.65	99.3923
607.78	99.3152
607.90	99.5694
608.03	99.4496
608.15	99.4857
608.27	99.4062
608.40	99.6128
608.52	99.1971
608.65	99.3364
608.77	99.0588
608.89	98.7612
609.02	98.8228
609.14	99.0108
609.27	98.9713
609.39	99.4713
609.52	99.7580
609.64	99.7851
609.76	99.7256
609.89	99.4457
610.01	99.1995
610.14	99.2692
610.26	99.0660
610.38	99.3905
610.51	99.7305
610.63	99.6355
610.76	99.5486
610.88	99.3788
611.01	99.1279
611.13	99.0827
611.25	99.0986
611.38	99.1521
611.50	99.3604
611.63	99.5370
611.75	99.4389
611.87	99.2449
612.00	99.1643
612.12	99.4347
612.25	99.3424
612.37	99.3707
612.49	99.2944
612.62	99.3504
612.74	99.1452
612.87	99.2448
612.99	99.0850
613.11	99.1121
613.24	99.0479
613.36	99.0286
613.49	98.9135
613.61	98.8781
613.73	99.1643
613.86	99.2251
613.98	99.1646
614.11	99.0861
614.23	99.1603
614.35	99.1180
614.48	99.0654
614.60	99.0252
614.72	99.1091
614.85	99.2130
614.97	99.2531
615.10	99.1813
615.22	99.2273
615.34	99.3650
615.47	99.3638
615.59	99.3030
615.72	99.6097
615.84	99.3582
615.96	99.2646
616.09	99.3921
616.21	99.2749
616.34	98.9819
616.46	99.2823
616.58	99.1945
616.71	98.9456
616.83	98.8569
616.95	98.8982
617.08	98.9654
617.20	99.0909
617.33	98.9647
617.45	99.1761
617.57	99.2510
617.70	99.0877
617.82	98.8985
617.95	99.1374
618.07	99.0329
618.19	98.8436
618.32	98.9924
618.44	99.1919
618.56	99.3021
618.69	99.0940
618.81	99.2156
618.94	99.0859
619.06	98.9033
619.18	98.8794
619.31	98.9656
619.43	98.7754
619.55	99.1123
619.68	99.3743
619.80	98.9531
619.92	98.9577
620.05	99.3478
620.17	99.3564
620.30	99.1085
620.42	99.4161
620.54	99.6549
620.67	99.5294
620.79	99.0797
620.91	99.1092
621.04	99.1423
621.16	99.2718
621.29	99.2057
621.41	99.3769
621.53	99.5808
621.66	99.3545
621.78	98.8378
621.90	99.0048
622.03	99.1372
622.15	99.0625
622.27	99.4192
622.40	99.6870
622.52	99.8098
622.64	99.7414
622.77	99.4154
622.89	99.2716
623.02	99.2927
623.14	98.9979
623.26	98.8190
623.39	99.1676
623.51	99.3817
623.63	99.2622
623.76	99.2641
623.88	99.4821
624.00	99.3644
624.13	99.2220
624.25	99.2755
624.37	99.1223
624.50	99.3618
624.62	99.6611
624.75	99.4750
624.87	99.7101
624.99	99.9562
625.12	99.2494
625.24	98.9657
625.36	99.0999
625.49	98.8284
625.61	98.5322
625.73	99.0661
625.86	99.0864
625.98	99.1561
626.10	99.1587
626.23	99.3372
626.35	99.3126
626.47	99.3106
626.60	99.2143
626.72	99.1676
626.84	99.2550
626.97	99.2815
627.09	99.0076
627.21	98.8781
627.34	99.2496
627.46	99.2902
627.58	98.9723
627.71	99.5930
627.83	99.5498
627.95	98.9603
628.08	98.8721
628.20	99.2288
628.32	98.9454
628.45	99.0569
628.57	99.3718
628.69	99.2344
628.82	99.2564
628.94	99.2528
629.06	99.2267
629.19	99.4303
629.31	99.4938
629.43	99.2957
629.56	99.0426
629.68	99.1733
629.80	99.1053
629.93	99.1770
630.05	99.1707
630.17	99.5679
630.30	99.4642
630.42	99.5306
630.54	99.7040
630.67	99.4441
630.79	99.2708
630.91	99.2561
631.04	99.1173
631.16	98.9600
631.28	99.2807
631.41	99.0852
631.53	98.9590
631.65	98.8290
631.78	98.7808
631.90	99.0491
632.02	99.0602
632.14	99.2922
632.27	99.4926
632.39	99.1874
632.51	98.8865
632.64	99.0656
632.76	99.0191
632.88	99.0283
633.01	99.2900
633.13	98.9255
633.25	99.1004
633.38	99.2036
633.50	99.1758
633.62	99.3816
633.75	99.6444
633.87	99.4710
633.99	99.5423
634.11	99.3618
634.24	99.2337
634.36	99.3147
634.48	99.0469
634.61	99.0375
634.73	99.2471
634.85	99.3287
634.98	99.4354
635.10	99.3806
635.22	99.2323
635.35	99.4576
635.47	99.4042
635.59	99.2446
635.71	99.4240
635.84	99.3206
635.96	99.1994
636.08	99.1370
636.21	99.0890
636.33	99.3508
636.45	99.6180
636.58	99.2174
636.70	99.3119
636.82	99.7006
636.94	99.4514
637.07	99.1861
637.19	99.3861
637.31	99.5025
637.44	99.2116
637.56	99.3125
637.68	99.4350
637.81	99.9002
637.93	99.6239
638.05	99.2431
638.17	99.2699
638.30	99.2728
638.42	98.7574
638.54	98.8053
638.67	99.0790
638.79	99.1756
638.91	99.2027
639.03	99.3762
639.16	99.4809
639.28	99.6689
639.40	99.3316
639.53	99.3318
639.65	99.4076
639.77	99.2477
639.89	99.1051
640.02	99.4430
640.14	99.1410
640.26	99.0359
640.39	99.1596
640.51	99.0303
640.63	98.7771
640.75	99.0798
640.88	99.0667
641.00	98.6244
641.12	98.9738
641.24	99.3784
641.37	98.9534
641.49	99.0424
641.61	99.4653
641.74	99.4826
641.86	99.0966
641.98	99.4876
642.10	99.5418
642.23	99.5684
642.35	99.3237
642.47	99.3332
642.60	99.4080
642.72	99.2662
642.84	99.1728
642.96	99.1677
643.09	99.3293
643.21	99.3185
643.33	99.2594
643.45	99.1260
643.58	99.3372
643.70	99.2816
643.82	99.2357
643.94	99.3669
644.07	99.5440
644.19	99.3536
644.31	99.4485
644.44	99.4700
644.56	99.4637
644.68	99.5508
644.80	99.7010
644.93	99.5640
645.05	99.5676
645.17	99.5610
645.29	99.5036
645.42	99.2271
645.54	99.1839
645.66	99.1663
645.78	99.0106
645.91	98.7335
646.03	98.9634
646.15	99.0377
646.27	98.9880
646.40	98.8829
646.52	99.2164
646.64	99.3379
646.76	99.1761
646.89	99.0736
647.01	99.0666
647.13	99.2378
647.25	99.0736
647.38	99.0479
647.50	99.3752
647.62	99.7521
647.74	99.3594
647.87	99.1164
647.99	99.2575
648.11	99.1916
648.23	98.8188
648.36	98.9837
648.48	99.3097
648.60	99.5408
648.72	99.0894
648.85	99.2711
648.97	99.3153
649.09	99.2425
649.21	99.0231
649.34	99.2793
649.46	99.3304
649.58	99.4459
649.70	99.2663
649.83	99.2394
649.95	99.2272
650.07	99.1086
650.19	98.8081
650.32	98.8170
650.44	98.8539
650.56	98.8604
650.68	98.9480
650.81	98.9180
650.93	99.0780
651.05	98.9816
651.17	99.0582
651.29	99.0504
651.42	99.3560
651.54	99.5528
651.66	99.5635
651.78	99.0794
651.91	99.0684
652.03	99.0611
652.15	98.8353
652.27	99.0445
652.40	99.6137
652.52	99.8818
652.64	99.4338
652.76	99.4951
652.88	99.5185
653.01	99.6724
653.13	99.3045
653.25	99.4780
653.37	99.4267
653.50	99.4361
653.62	98.8836
653.74	98.8089
653.86	99.0592
653.98	99.0783
654.11	98.9552
654.23	98.9010
654.35	99.0080
654.47	99.0065
654.60	99.2722
654.72	99.0102
654.84	99.3529
654.96	99.4676
655.08	99.3921
655.21	99.0383
655.33	99.3037
655.45	99.3822
655.57	99.2108
655.70	98.9415
655.82	98.9446
655.94	99.1824
656.06	98.9192
656.18	98.9035
656.31	99.2506
656.43	99.4310
656.55	99.2093
656.67	99.2372
656.79	99.4848
656.92	99.4833
657.04	99.0899
657.16	99.1257
657.28	99.1496
657.40	99.2191
657.53	99.0913
657.65	99.1182
657.77	99.1804
657.89	99.4384
658.01	99.1987
658.14	99.2405
658.26	99.6546
658.38	99.5643
658.50	99.0533
658.62	99.1461
658.75	99.0575
658.87	99.1585
658.99	99.1381
659.11	99.1642
659.23	99.2450
659.36	99.3081
659.48	99.0985
659.60	99.1473
659.72	99.4586
659.84	99.4168
659.97	99.0311
660.09	98.8442
660.21	99.0394
660.33	99.2989
660.45	99.2094
660.58	99.4212
660.70	99.8167
660.82	99.5392
660.94	99.0995
661.06	98.9835
661.19	99.1953
661.31	98.9418
661.43	98.7326
661.55	98.6952
661.67	98.9669
661.80	98.8647
661.92	98.8513
662.04	98.9714
662.16	99.3268
662.28	99.1997
662.40	99.1592
662.53	99.3449
662.65	99.3164
662.77	99.3856
662.89	99.6192
663.01	99.7465
663.14	99.5626
663.26	99.9154
663.38	99.6870
663.50	99.2564
663.62	99.2440
663.74	99.3959
663.87	99.1675
663.99	98.8908
664.11	99.2356
664.23	99.4696
664.35	99.3082
664.48	99.4684
664.60	99.9406
664.72	99.8795
664.84	99.4280
664.96	99.5158
665.08	99.3074
665.21	99.4435
665.33	99.3316
665.45	99.4001
665.57	99.4268
665.69	99.5850
665.81	99.4309
665.94	99.3364
666.06	99.3964
666.18	99.6347
666.30	99.4211
666.42	99.1921
666.54	99.3917
666.67	99.2275
666.79	98.8985
666.91	99.1379
667.03	99.2296
667.15	99.1993
667.27	99.4977
667.40	99.2546
667.52	99.0740
667.64	99.2760
667.76	99.0921
667.88	98.8408
668.00	99.0136
668.13	99.1169
668.25	98.9784
668.37	98.9386
668.49	99.2858
668.61	99.5295
668.73	99.5059
668.85	99.3937
668.98	99.7414
669.10	99.5219
669.22	99.1160
669.34	99.2520
669.46	99.2066
669.58	98.9252
669.71	99.1069
669.83	99.3176
669.95	99.1621
670.07	99.1641
670.19	99.3903
670.31	99.2974
670.43	99.1536
670.56	99.0748
670.68	99.3001
670.80	98.8304
670.92	98.7629
671.04	99.0533
671.16	99.2456
671.28	98.9707
671.41	99.4069
671.53	99.7288
671.65	99.2835
671.77	98.9370
671.89	99.1049
672.01	99.2490
672.13	98.8495
672.26	99.3132
672.38	99.3495
672.50	99.1659
672.62	98.8045
672.74	98.9581
672.86	98.7978
672.98	99.0589
673.11	99.0032
673.23	99.2311
673.35	99.2026
673.47	99.4751
673.59	99.2869
673.71	99.0677
673.83	98.9562
673.96	99.1568
674.08	98.7948
674.20	98.8272
674.32	99.2394
674.44	99.2893
674.56	98.8963
674.68	98.8923
674.80	99.1677
674.93	99.2825
675.05	99.2157
675.17	99.3522
675.29	99.5460
675.41	99.3952
675.53	99.3455
675.65	99.2351
675.77	99.3443
675.90	99.4739
676.02	99.1456
676.14	98.7594
676.26	98.9807
676.38	98.9368
676.50	98.8660
676.62	99.4220
676.74	99.7107
676.87	99.3951
676.99	99.2543
677.11	99.1546
677.23	98.8447
677.35	98.9981
677.47	99.2783
677.59	99.2309
677.71	99.1872
677.83	99.0632
677.96	98.9589
678.08	98.9756
678.20	99.2195
678.32	99.3100
678.44	99.1567
678.56	99.0561
678.68	99.1882
678.80	99.1266
678.93	98.9998
679.05	99.1182
679.17	99.3335
679.29	99.2810
679.41	99.3281
679.53	99.3873
679.65	99.6251
679.77	99.5166
679.89	99.1892
680.01	99.4098
680.14	99.5851
680.26	99.3928
680.38	99.2962
680.50	99.4821
680.62	99.2380
680.74	99.1541
680.86	99.3598
680.98	99.0891
681.10	99.1961
681.22	99.3685
681.35	99.5302
681.47	99.0026
681.59	99.4277
681.71	99.4814
681.83	99.1086
681.95	98.6004
682.07	98.9948
682.19	98.9363
682.31	98.4735
682.43	98.7123
682.56	98.9443
682.68	98.9584
682.80	98.7604
682.92	99.0950
683.04	99.1463
683.16	99.0054
683.28	99.0426
683.40	99.1314
683.52	99.1267
683.64	99.0895
683.76	99.2962
683.89	99.1121
684.01	99.1749
684.13	99.1995
684.25	99.0452
684.37	99.0815
684.49	99.0373
684.61	99.1144
684.73	99.2571
684.85	99.1172
684.97	99.2181
685.09	99.7154
685.21	99.3844
685.34	99.2811
685.46	99.4470
685.58	99.0189
685.70	98.8776
685.82	99.1430
685.94	99.0683
686.06	99.0730
686.18	99.3187
686.30	99.1085
686.42	99.2405
686.54	98.9535
686.66	99.0107
686.79	98.7608
686.91	98.8063
687.03	98.9194
687.15	99.3555
687.27	99.1889
687.39	99.5604
687.51	99.6594
687.63	99.4115
687.75	98.9624
687.87	99.2743
687.99	99.0808
688.11	98.7778
688.23	98.8170
688.35	99.1748
688.48	99.0637
688.60	98.9962
688.72	99.2806
688.84	99.4380
688.96	99.5734
689.08	99.1098
689.20	99.1889
689.32	99.2782
689.44	99.3243
689.56	99.1011
689.68	99.5191
689.80	99.5974
689.92	99.5215
690.04	99.3913
690.16	99.3914
690.28	99.7256
690.41	99.6336
690.53	99.2924
690.65	99.0536
690.77	99.0547
690.89	98.7455
691.01	98.8902
691.13	99.0767
691.25	99.2959
691.37	99.6153
691.49	99.2481
691.61	99.0664
691.73	99.3620
691.85	99.4574
691.97	98.9020
692.09	99.2240
692.21	99.2386
692.33	99.3289
692.45	99.2531
692.57	99.3075
692.70	99.5225
692.82	99.6205
692.94	99.2671
693.06	99.2532
693.18	99.5796
693.30	99.1530
693.42	99.1362
693.54	99.2859
693.66	99.4792
693.78	99.2520
693.90	99.5107
694.02	99.6783
694.14	99.5750
694.26	99.1259
694.38	99.1475
694.50	99.2655
694.62	99.2094
694.74	99.1367
694.86	99.2819
694.98	99.1425
695.10	99.1129
695.22	98.9846
695.34	99.0994
695.46	99.0641
695.58	99.2597
695.71	99.1890
695.83	98.9032
695.95	99.0247
696.07	99.2635
696.19	99.5075
696.31	99.3105
696.43	99.6546
696.55	99.7613
696.67	99.7719
696.79	99.6777
696.91	99.5583
697.03	99.5928
697.15	99.5817
697.27	99.2166
697.39	99.1945
697.51	99.5049
697.63	99.1200
697.75	98.9523
697.87	99.3104
697.99	99.1790
698.11	99.1420
698.23	99.4404
698.35	99.3676
698.47	99.4238
698.59	99.1423
698.71	99.1983
698.83	99.2180
698.95	99.2096
699.07	98.9238
699.19	99.2754
699.31	99.1285
699.43	99.2499
699.55	99.3701
699.67	99.5276
699.79	99.5070
699.91	99.6021
700.03	99.4410
700.15	99.3024
700.27	99.4713
700.39	99.3327
700.51	99.2764
700.63	99.1182
700.75	99.3066
700.87	98.9881
700.99	99.2846
701.11	99.3305
701.24	99.2712
701.36	99.1165
701.48	99.3992
701.60	98.9617
701.72	99.0398
701.84	99.4784
701.96	99.3606
702.08	98.9791
702.20	99.2405
702.32	99.2663
702.44	99.2094
702.56	99.3793
702.68	99.3025
702.80	99.2687
702.92	99.3456
703.04	99.3520
703.16	99.5806
703.28	99.8507
703.40	99.7771
703.52	99.4938
703.64	99.2216
703.76	98.9321
703.88	98.9303
704.00	98.8463
704.12	99.0064
704.24	99.0792
704.36	99.2180
704.48	99.0573
704.60	99.1704
704.72	98.7992
704.84	98.7889
704.96	98.8708
705.07	99.1054
705.19	99.0179
705.31	99.4538
705.43	99.3685
705.55	99.1630
705.67	99.2776
705.79	99.4882
705.91	99.2778
706.03	99.3065
706.15	99.4528
706.27	99.2084
706.39	99.2518
706.51	99.4292
706.63	99.5408
706.75	99.3523
706.87	99.4511
706.99	99.6204
707.11	99.6032
707.23	99.6080
707.35	99.6025
707.47	99.5104
707.59	99.4265
707.71	99.3530
707.83	99.4458
707.95	99.2354
708.07	99.2380
708.19	99.4243
708.31	99.4780
708.43	99.3425
708.55	99.6963
708.67	99.6881
708.79	99.3848
708.91	99.2497
709.03	99.4583
709.15	99.4086
709.27	99.4900
709.39	99.3890
709.51	99.4129
709.63	99.4920
709.75	99.3208
709.87	99.2550
709.99	99.3875
710.11	99.6449
710.23	99.0872
710.35	99.1301
710.47	99.1354
710.58	98.9001
710.70	98.6577
710.82	98.9547
710.94	98.9471
711.06	99.0510
711.18	98.9142
711.30	98.8070
711.42	98.7776
711.54	99.1251
711.66	98.9666
711.78	98.9060
711.90	99.1807
712.02	99.5020
712.14	99.0183
712.26	98.8065
712.38	99.2531
712.50	99.2599
712.62	99.0574
712.74	98.8894
712.86	99.2935
712.98	99.3111
713.10	99.0765
713.22	98.9881
713.34	99.4213
713.45	99.4295
713.57	99.3104
713.69	99.4285
713.81	99.6597
713.93	100.0105
714.05	99.6717
714.17	99.4570
714.29	99.6424
714.41	99.4125
714.53	99.0479
714.65	99.4489
714.77	99.3110
714.89	99.1640
715.01	99.2136
715.13	99.1893
715.25	99.1227
715.37	99.2845
715.49	99.2235
715.61	99.0258
715.72	99.1694
715.84	99.1878
715.96	99.1734
716.08	99.1064
716.20	99.3417
716.32	99.2541
716.44	99.1253
716.56	99.0060
716.68	99.0918
716.80	99.2402
716.92	99.3461
717.04	99.4418
717.16	99.9131
717.28	99.7811
717.40	99.5348
717.52	99.3876
717.63	99.2802
717.75	99.1858
717.87	99.4425
717.99	99.2760
718.11	99.1899
718.23	99.1119
718.35	99.2916
718.47	99.1770
718.59	99.4725
718.71	99.4675
718.83	99.8672
718.95	99.6312
719.07	99.6713
719.19	99.6276
719.30	99.7340
719.42	99.4875
719.54	99.4668
719.66	99.6458
719.78	99.5712
719.90	99.6495
720.02	99.4666
720.14	99.4296
720.26	99.1596
720.38	99.3992
720.50	99.1001
720.62	99.4856
720.74	99.4849
720.85	99.2439
720.97	99.1999
721.09	99.2952
721.21	99.0156
721.33	99.0621
721.45	99.2615
721.57	99.4398
721.69	99.2268
721.81	98.9542
721.93	99.0974
722.05	99.3828
722.16	99.0793
722.28	99.1599
722.40	99.1802
722.52	99.3477
722.64	99.1175
722.76	99.0041
722.88	99.4331
723.00	99.6733
723.12	99.7242
723.24	99.4796
723.36	99.3858
723.47	99.1792
723.59	99.0542
723.71	98.8672
723.83	99.1368
723.95	99.1264
724.07	98.7749
724.19	99.1078
724.31	99.3065
724.43	99.4889
724.55	99.1034
724.66	99.6557
724.78	99.7094
724.90	99.4005
725.02	99.1841
725.14	100.1404
725.26	100.0191
725.38	99.7238
725.50	99.6087
725.62	99.8074
725.74	99.8543
725.85	99.9486
725.97	98.7667
726.09	99.1674
726.21	99.3613
726.33	99.1713
726.45	99.0878
726.57	100.3979
726.69	99.9419
726.81	99.5438
726.92	99.1794
727.04	99.0756
727.16	99.0403
727.28	99.2799
727.40	98.8498
727.52	98.7781
727.64	98.7922
727.76	98.9769
727.88	98.8987
727.99	99.3123
728.11	99.5294
728.23	99.6155
728.35	99.3770
728.47	99.3089
728.59	99.5880
728.71	99.7352
728.83	99.6279
728.94	99.6225
729.06	99.7754
729.18	99.6392
729.30	99.3303
729.42	99.2196
729.54	99.3752
729.66	99.1716
729.78	99.0487
729.90	99.4945
730.01	99.6212
730.13	99.6740
730.25	99.6718
730.37	99.7645
730.49	99.4839
730.61	99.4356
730.73	99.3558
730.84	99.3667
730.96	99.5071
731.08	99.6617
731.20	99.1103
731.32	99.1319
731.44	99.2316
731.56	98.8357
731.68	98.6162
731.79	99.2978
731.91	99.0707
732.03	99.1225
732.15	99.3705
732.27	99.2600
732.39	99.3675
732.51	99.6920
732.62	99.3280
732.74	99.3277
732.86	99.6302
732.98	99.4414
733.10	98.9529
733.22	99.5091
733.34	99.3845
733.45	99.2804
733.57	99.2078
733.69	99.5014
733.81	99.2892
733.93	99.2644
734.05	99.1859
734.17	99.2569
734.28	99.5046
734.40	99.5294
734.52	99.2087
734.64	99.2964
734.76	99.5700
734.88	99.2628
735.00	98.8029
735.11	99.4024
735.23	99.6744
735.35	99.1549
735.47	99.2415
735.59	99.6422
735.71	99.2802
735.83	98.8972
735.94	99.0997
736.06	98.9977
736.18	98.9913
736.30	99.4453
736.42	99.5816
736.54	99.0477
736.65	99.2347
736.77	99.3617
736.89	98.5548
737.01	98.8312
737.13	99.4911
737.25	99.2551
737.36	99.0302
737.48	99.6290
737.60	99.2472
737.72	98.8180
737.84	98.9475
737.96	98.8068
738.08	98.9043
738.19	98.8189
738.31	99.1761
738.43	99.0501
738.55	99.4151
738.67	99.3191
738.79	99.3844
738.90	99.6006
739.02	99.8722
739.14	99.5486
739.26	99.2432
739.38	99.4776
739.50	99.2721
739.61	99.1098
739.73	99.1522
739.85	99.1043
739.97	99.3326
740.09	99.3253
740.20	99.1916
740.32	99.6567
740.44	99.9931
740.56	99.6749
740.68	99.6821
740.80	99.6128
740.91	99.1914
741.03	99.2372
741.15	98.9620
741.27	98.8848
741.39	98.8064
741.51	98.9556
741.62	98.9324
741.74	99.2096
741.86	99.2781
741.98	99.5509
742.10	99.4600
742.21	99.5144
742.33	99.0849
742.45	99.1194
742.57	98.9967
742.69	99.1532
742.80	99.1289
742.92	99.6635
743.04	99.3758
743.16	99.7788
743.28	99.7413
743.40	99.7917
743.51	99.5972
743.63	99.7918
743.75	99.3913
743.87	99.1961
743.99	98.9866
744.10	99.0758
744.22	98.8739
744.34	98.7069
744.46	98.9379
744.58	98.6474
744.69	98.5324
744.81	99.0968
744.93	99.1150
745.05	98.7952
745.17	99.2627
745.28	99.3974
745.40	99.1871
745.52	99.4342
745.64	99.8656
745.76	100.0815
745.87	99.8664
745.99	99.9372
746.11	99.9937
746.23	99.9464
746.35	99.0723
746.46	99.0133
746.58	98.7639
746.70	98.6793
746.82	98.6671
746.94	99.3627
747.05	99.6258
747.17	99.8526
747.29	99.3320
747.41	99.4921
747.53	99.4301
747.64	99.1696
747.76	98.7689
747.88	99.3776
748.00	99.3144
748.12	99.3519
748.23	99.4044
748.35	99.5710
748.47	99.6751
748.59	99.5720
748.70	99.4598
748.82	99.5479
748.94	99.4986
749.06	99.5029
749.18	99.2200
749.29	99.2523
749.41	99.4201
749.53	99.4830
749.65	99.6034
749.76	99.9333
749.88	99.7126
750.00	99.3848
750.12	99.4130
750.24	99.3074
750.35	98.8676
750.47	99.1112
750.59	99.0403
750.71	99.4327
750.82	99.3966
750.94	99.6493
751.06	99.6036
751.18	99.8315
751.30	99.3538
751.41	99.3181
751.53	99.4646
751.65	99.2256
751.77	99.0758
751.88	99.4823
752.00	99.0653
752.12	98.9289
752.24	99.1222
752.35	99.1511
752.47	98.6692
752.59	99.2867
752.71	98.9934
752.83	99.2371
752.94	99.2195
753.06	99.3457
753.18	99.0322
753.30	99.2584
753.41	98.8785
753.53	98.8591
753.65	99.0863
753.77	99.1085
753.88	99.0063
754.00	98.9153
754.12	99.2770
754.24	99.6958
754.35	99.5227
754.47	99.6031
754.59	99.9672
754.71	99.9301
754.82	99.2150
754.94	99.4373
755.06	99.4656
755.18	99.4747
755.29	99.1755
755.41	99.4442
755.53	99.5172
755.65	99.6154
755.76	99.1105
755.88	99.1668
756.00	99.3743
756.12	99.2396
756.23	98.7200
756.35	99.1197
756.47	99.5088
756.59	99.1960
756.70	99.3803
756.82	99.6644
756.94	99.5551
757.06	99.3062
757.17	99.5678
757.29	99.2144
757.41	99.3742
757.53	99.3550
757.64	99.1159
757.76	98.7888
757.88	98.9163
758.00	99.1863
758.11	99.1731
758.23	99.3993
758.35	99.3871
758.47	99.5205
758.58	99.2720
758.70	99.5639
758.82	99.3006
758.94	99.5770
759.05	99.5731
759.17	99.1988
759.29	99.0066
759.40	99.2677
759.52	98.9133
759.64	98.5696
759.76	98.9164
759.87	98.9655
759.99	99.1992
760.11	99.3942
760.23	99.6105
760.34	99.6620
760.46	99.6517
760.58	99.2103
760.70	99.1593
760.81	99.1965
760.93	99.2829
761.05	99.6097
761.16	99.8875
761.28	100.1775
761.40	99.8304
761.52	99.5886
761.63	99.3106
761.75	99.3685
761.87	99.1921
761.98	99.6767
762.10	99.7461
762.22	100.0680
762.34	99.8243
762.45	99.1571
762.57	99.2205
762.69	99.1667
762.81	99.1355
762.92	99.0543
763.04	99.2343
763.16	99.0874
763.27	99.0991
763.39	98.6046
763.51	98.8313
763.63	99.5832
763.74	99.5957
763.86	99.7680
763.98	99.6954
764.09	99.8195
764.21	99.4975
764.33	99.5157
764.44	99.3762
764.56	99.6238
764.68	99.6188
764.80	99.0889
764.91	99.0544
765.03	99.1437
765.15	99.3111
765.26	98.8704
765.38	99.3663
765.50	99.2980
765.62	99.1708
765.73	99.1736
765.85	99.2843
765.97	99.4532
766.08	99.6461
766.20	99.7225
766.32	99.3619
766.43	99.5082
766.55	99.3836
766.67	99.3301
766.79	99.4534
766.90	99.7886
767.02	100.0272
767.14	99.2382
767.25	99.0911
767.37	99.0498
767.49	98.5829
767.60	98.1667
767.72	99.0355
767.84	99.3190
767.95	99.1756
768.07	99.4355
768.19	99.6678
768.31	99.5992
768.42	99.4247
768.54	99.1848
768.66	99.1276
768.77	99.2863
768.89	99.2020
769.01	98.9329
769.12	99.2031
769.24	99.3728
769.36	99.2692
769.47	99.0090
769.59	99.1258
769.71	99.1186
769.82	99.3049
769.94	99.0157
770.06	99.4194
770.17	99.3966
770.29	99.1410
770.41	99.0950
770.53	99.3588
770.64	99.1693
770.76	99.1988
770.88	99.9749
770.99	99.8800
771.11	99.8903
771.23	99.6560
771.34	99.4830
771.46	99.0874
771.58	99.0178
771.69	98.8203
771.81	99.3933
771.93	99.2365
772.04	99.1402
772.16	98.9212
772.28	99.0536
772.39	98.5682
772.51	99.1174
772.63	99.2004
772.74	98.7250
772.86	98.9304
772.98	99.1992
773.09	98.9591
773.21	98.8391
773.33	99.6798
773.44	99.2190
773.56	98.8456
773.68	99.1023
773.79	99.2110
773.91	99.1283
774.03	99.0530
774.14	99.5540
774.26	99.7875
774.38	99.6637
774.49	99.3820
774.61	99.7052
774.73	99.5370
774.84	99.0349
774.96	99.2261
775.08	99.3537
775.19	99.2004
775.31	99.1850
775.43	99.4360
775.54	98.8619
775.66	99.1397
775.77	98.9617
775.89	98.7554
776.01	98.5913
776.12	99.4061
776.24	99.3949
776.36	99.4255
776.47	99.3945
776.59	99.6876
776.71	99.5838
776.82	99.4512
776.94	99.4655
777.06	99.9267
777.17	99.9796
777.29	99.6042
777.41	99.4994
777.52	99.4260
777.64	99.6132
777.75	99.5465
777.87	99.4340
777.99	99.4063
778.10	99.7454
778.22	99.4863
778.34	99.1084
778.45	99.3191
778.57	99.3916
778.69	98.8999
778.80	98.8727
778.92	99.2073
779.04	99.2145
779.15	99.0628
779.27	99.2657
779.38	99.3707
779.50	99.2049
779.62	99.5867
779.73	99.0888
779.85	99.4292
779.97	99.5403
780.08	99.2724
780.20	98.7916
780.31	99.4630
780.43	99.5286
780.55	98.9451
780.66	98.5986
780.78	99.0259
780.90	99.2505
781.01	99.2320
781.13	99.0974
781.25	99.9204
781.36	99.7447
781.48	99.0117
781.59	98.6363
781.71	99.2627
781.83	99.3875
781.94	98.7322
782.06	99.1315
782.18	99.9437
782.29	99.4886
782.41	99.0180
782.52	99.6520
782.64	99.9196
782.76	100.0148
782.87	99.7265
782.99	99.0768
783.10	99.2370
783.22	99.0502
783.34	98.2367
783.45	98.7795
783.57	99.2306
783.69	98.5460
783.80	98.3633
783.92	98.6456
784.03	98.5230
784.15	98.8622
784.27	99.2878
784.38	99.3390
784.50	99.4155
784.61	99.6622
784.73	99.8764
784.85	99.5636
784.96	99.5459
785.08	99.4248
785.19	99.5996
785.31	99.5097
785.43	99.4088
785.54	99.3768
785.66	99.0269
785.77	99.0991
785.89	98.8723
786.01	99.1670
786.12	98.8962
786.24	99.0967
786.35	98.7378
786.47	99.0221
786.59	98.9662
786.70	99.4519
786.82	99.4312
786.93	99.4260
787.05	99.3032
787.17	99.6330
787.28	99.3619
787.40	99.3420
787.51	99.6665
787.63	99.3228
787.75	98.8425
787.86	99.0913
787.98	99.2700
788.09	98.7160
788.21	98.9205
788.33	99.7239
788.44	99.5707
788.56	99.8865
788.67	100.0533
788.79	100.3374
788.91	100.2141
789.02	99.7775
789.14	99.2452
789.25	99.4739
789.37	99.1643
789.48	99.0172
789.60	99.2572
789.72	99.0180
789.83	99.2065
789.95	99.5699
790.06	98.9236
790.18	98.9527
790.30	99.1849
790.41	98.7849
790.53	98.5913
790.64	98.8612
790.76	99.0421
790.87	98.8991
790.99	98.8554
791.11	98.7789
791.22	98.5143
791.34	98.3761
791.45	98.6632
791.57	98.8524
791.68	98.2889
791.80	98.5501
791.92	98.9047
792.03	99.0111
792.15	99.0445
792.26	99.3816
792.38	99.4033
792.49	99.4143
792.61	99.5872
792.73	100.0362
792.84	101.9048
792.96	97.1177
793.07	97.5760
793.19	98.4419
793.30	98.6608
793.42	97.6170
793.54	101.5633
793.65	101.2612
793.77	100.6246
793.88	99.7825
794.00	99.2657
794.11	99.8727
794.23	99.9095
794.34	99.9777
794.46	99.1569
794.58	98.6496
794.69	99.6339
794.81	99.8709
794.92	98.4348
795.04	98.8784
795.15	99.1420
795.27	98.8843
795.39	98.5501
795.50	99.6192
795.62	100.1308
795.73	100.2369
795.85	99.4159
795.96	99.5026
796.08	99.4493
796.19	99.5481
796.31	99.5462
796.42	99.6339
796.54	99.7311
796.66	100.1320
796.77	99.2898
796.89	99.7972
797.00	100.3336
797.12	99.6435
797.23	98.9335
797.35	99.3946
797.46	98.7882
797.58	98.8639
797.69	99.2677
797.81	99.7073
797.93	100.0226
798.04	99.8823
798.16	100.0314
798.27	100.1700
798.39	100.2991
798.50	100.4525
798.62	100.0893
798.73	99.9832
798.85	99.8507
798.96	99.1850
799.08	98.8138
799.19	99.5689
799.31	99.7989
799.43	99.6404
799.54	99.4190
799.66	99.6600
799.77	100.2579
799.89	99.8504
800.00	99.3187
800.12	99.1920
800.23	99.4460
800.35	99.0611
800.46	98.5800
800.58	98.9907
800.69	99.7050
800.81	98.8860
800.92	98.8978
801.04	99.6767
801.16	99.9377
801.27	99.8136
801.39	100.2334
801.50	99.4902
801.62	98.8196
801.73	99.1814
801.85	99.0096
801.96	98.5970
802.08	99.6472
802.19	100.1498
802.31	99.1569
802.42	99.1186
802.54	99.9204
802.65	98.9399
802.77	99.4303
802.88	99.3009
803.00	99.8480
803.11	99.7257
803.23	99.9997
803.34	99.6634
803.46	99.9110
803.57	99.9938
803.69	99.3455
803.80	99.6028
803.92	99.3334
804.03	99.3757
804.15	98.7629
804.26	99.5076
804.38	99.1167
804.50	98.7595
804.61	98.9154
804.73	99.7375
804.84	99.4196
804.96	99.7447
805.07	99.9271
805.19	99.7479
805.30	99.2581
805.42	99.1342
805.53	99.2336
805.65	99.6288
805.76	99.8468
805.88	99.5808
805.99	99.8298
806.11	99.5715
806.22	99.3150
806.34	99.4834
806.45	99.2535
806.57	99.4901
806.68	99.3643
806.80	99.1515
806.91	99.5411
807.03	100.2023
807.14	100.0766
807.26	99.9160
807.37	100.5863
807.49	99.8834
807.60	99.1031
807.72	99.1033
807.83	99.6067
807.95	99.0799
808.06	98.9303
808.17	99.6675
808.29	99.2759
808.40	98.8049
808.52	98.5024
808.63	99.0285
808.75	98.4848
808.86	98.6424
808.98	98.7029
809.09	99.2050
809.21	98.9650
809.32	100.0569
809.44	99.9019
809.55	100.5329
809.67	100.0304
809.78	99.5562
809.90	99.0675
810.01	98.4333
810.13	98.4370
810.24	99.2163
810.36	99.8905
810.47	99.2859
810.59	99.2850
810.70	99.1838
810.82	98.8550
810.93	98.7853
811.05	99.2383
811.16	99.6411
811.27	98.4696
811.39	98.9042
811.50	99.9533
811.62	99.6581
811.73	99.7773
811.85	100.5234
811.96	100.1435
812.08	99.3576
812.19	99.6883
812.31	100.4799
812.42	100.6150
812.54	100.1124
812.65	99.9484
812.77	99.8175
812.88	99.2775
813.00	99.9635
813.11	100.6210
813.22	100.9306
813.34	100.1005
813.45	99.3337
813.57	99.2513
813.68	99.9330
813.80	100.2771
813.91	99.9790
814.03	101.1198
814.14	100.4382
814.26	99.2665
814.37	98.9703
814.49	100.1076
814.60	99.3496
814.71	99.8027
814.83	99.9192
814.94	99.1482
815.06	99.6033
815.17	100.7296
815.29	99.0000
815.40	99.3247
815.52	100.2620
815.63	99.3731
815.75	99.4152
815.86	100.6388
815.97	99.7991
816.09	98.9012
816.20	100.6320
816.32	99.6991
816.43	100.2528
816.55	99.3648
816.66	100.1141
816.78	99.0145
816.89	99.8392
817.00	100.2663
817.12	101.0746
817.23	100.9744
817.35	102.1508
817.46	100.2172
817.58	100.0969
817.69	100.8804
817.81	100.5087
817.92	99.0218
818.03	101.1755
818.15	101.0589
818.26	100.7779
818.38	106.8883
818.49	115.0546
818.61	97.2992
818.72	100.9907
818.83	110.2063
818.95	105.7027
819.06	96.3668
819.18	114.9250
819.29	110.4847
819.41	100.9264
819.52	99.4136
819.64	101.6298
819.75	101.5971
819.86	100.1171
819.98	100.4011
820.09	101.3027
820.21	98.7561
820.32	96.5577
820.44	99.5248
820.55	99.3239
820.66	98.7006
820.78	99.6028
820.89	101.9218
821.01	100.1861
821.12	102.0150
821.23	99.0689
821.35	98.4741
821.46	99.7354
821.58	101.0257
821.69	97.6571
821.81	99.3696
821.92	98.7066
822.03	99.1256
822.15	98.9793
822.26	99.0889
822.38	99.0617
822.49	99.8467
822.61	96.7033
822.72	95.8128
822.83	99.1686
822.95	98.5217
823.06	96.9395
823.18	97.6154
823.29	98.9460
823.40	101.4220
823.52	97.7338
823.63	100.4717
823.75	105.4567
823.86	101.3459
823.97	99.9298
824.09	105.1610
824.20	106.3618
824.32	101.6629
824.43	99.4073
824.55	98.8611
824.66	100.0414
824.77	95.2046
824.89	96.5896
825.00	100.6156
825.12	100.7435
825.23	102.8581
825.34	101.6935
825.46	100.9737
825.57	107.0997
825.69	104.3657
825.80	103.8200
825.91	105.2902
826.03	108.1135
826.14	101.1508
826.26	101.3202
826.37	97.5474
826.48	105.8303
826.60	101.5486
826.71	102.3550
826.83	94.0159
826.94	90.7903
827.05	88.6253
827.17	90.8861
827.28	94.7445
827.39	100.5224
827.51	104.6796
827.62	103.5795
827.74	110.3977
827.85	109.5041
827.96	93.2512
828.08	105.0351
828.19	136.4138
828.31	116.9814
828.42	101.8218
828.53	116.2177
828.65	22.1656
828.76	0.0000
828.87	0.0000
828.99	0.0000
