Wavelength (nm)	Reflectance (%)
377.35	0.0000
377.48	0.0000
377.62	0.0000
377.75	109.1915
377.88	0.0000
378.02	200.0000
378.15	200.0000
378.28	200.0000
378.41	200.0000
378.55	76.2353
378.68	0.0000
378.81	200.0000
378.95	200.0000
379.08	200.0000
379.21	200.0000
379.35	0.0000
379.48	130.1860
379.61	180.0552
379.74	132.7273
379.88	59.7195
380.01	96.1649
380.14	125.3121
380.28	76.6122
380.41	71.0484
380.54	151.7034
380.68	139.5217
380.81	89.1023
380.94	74.5581
381.07	102.5449
381.21	111.0558
381.34	60.1651
381.47	84.6920
381.61	144.7034
381.74	127.5072
381.87	54.0247
382.00	120.8178
382.14	149.2717
382.27	87.2634
382.40	65.3714
382.54	115.6992
382.67	126.5089
382.80	92.9185
382.93	118.6035
383.07	124.4377
383.20	110.8787
383.33	131.8675
383.47	88.3292
383.60	85.7222
383.73	113.9753
383.86	116.9154
384.00	77.1332
384.13	111.9136
384.26	123.4793
384.40	94.3744
384.53	78.7019
384.66	95.2258
384.79	114.6458
384.93	103.1394
385.06	83.8155
385.19	87.8598
385.33	96.1435
385.46	72.6008
385.59	86.8312
385.72	126.0208
385.86	119.0199
385.99	111.1956
386.12	114.2776
386.25	85.4540
386.39	92.4681
386.52	109.5884
386.65	107.5877
386.79	89.9368
386.92	127.4027
387.05	137.4041
387.18	111.2145
387.32	102.2242
387.45	144.0469
387.58	134.4406
387.71	114.2135
387.85	118.6220
387.98	113.3984
388.11	110.1784
388.25	96.9462
388.38	83.9536
388.51	95.0039
388.64	119.6754
388.78	124.0535
388.91	99.5882
389.04	126.1021
389.17	118.7947
389.31	85.4309
389.44	75.3046
389.57	105.5659
389.70	99.7591
389.84	105.2420
389.97	107.7653
390.10	111.7018
390.24	113.4918
390.37	89.4879
390.50	85.7640
390.63	91.5385
390.77	84.5180
390.90	87.2509
391.03	106.4155
391.16	99.8112
391.30	102.2555
391.43	116.7664
391.56	95.1087
391.69	98.4034
391.83	116.1888
391.96	94.5638
392.09	85.1987
392.22	113.4214
392.36	118.0539
392.49	89.0228
392.62	92.9432
392.75	100.3316
392.89	96.5098
393.02	100.3644
393.15	89.4118
393.28	111.1992
393.42	103.6950
393.55	103.0332
393.68	90.8777
393.81	113.2262
393.95	111.0132
394.08	105.9736
394.21	96.7895
394.34	94.9111
394.48	97.0582
394.61	88.3097
394.74	95.1756
394.87	94.6819
395.01	116.5435
395.14	104.1766
395.27	95.9483
395.40	104.2299
395.54	110.8171
395.67	87.6996
395.80	99.0216
395.93	112.7184
396.07	111.0018
396.20	104.7679
396.33	106.0068
396.46	108.0584
396.59	115.2313
396.73	96.9862
396.86	97.3474
396.99	114.5113
397.12	131.9218
397.26	82.3714
397.39	85.4759
397.52	102.2375
397.65	95.5118
397.79	66.6622
397.92	111.4695
398.05	125.2349
398.18	103.2611
398.32	93.0067
398.45	100.4672
398.58	103.3205
398.71	97.2584
398.84	95.9807
398.98	96.0822
399.11	101.8280
399.24	100.6704
399.37	101.8044
399.51	107.8191
399.64	109.4341
399.77	106.2765
399.90	109.8156
400.03	99.1104
400.17	91.6813
400.30	95.4907
400.43	94.0680
400.56	87.0393
400.70	103.2254
400.83	111.2268
400.96	109.5186
401.09	105.0093
401.23	107.0401
401.36	98.8225
401.49	97.4795
401.62	99.4669
401.75	105.5226
401.89	100.1506
402.02	99.2085
402.15	99.9776
402.28	102.4361
402.41	107.1752
402.55	96.9986
402.68	93.9574
402.81	101.1084
402.94	105.0760
403.08	93.8162
403.21	98.1152
403.34	108.6162
403.47	98.3621
403.60	85.7592
403.74	96.6114
403.87	102.4681
404.00	101.8787
404.13	110.8091
404.26	111.8656
404.40	107.0301
404.53	112.6836
404.66	100.0677
404.79	92.8692
404.93	105.3048
405.06	102.7858
405.19	94.2206
405.32	97.8103
405.45	106.6617
405.59	107.8108
405.72	84.3790
405.85	94.2014
405.98	106.0628
406.11	99.3124
406.25	83.3191
406.38	105.8577
406.51	103.9976
406.64	99.2094
406.77	95.3985
406.91	104.2068
407.04	106.1908
407.17	103.3460
407.30	91.8264
407.43	91.0364
407.57	95.5598
407.70	96.6861
407.83	98.6187
407.96	96.7019
408.09	106.4729
408.23	108.9416
408.36	92.6200
408.49	89.3349
408.62	107.5375
408.75	101.9700
408.89	95.5976
409.02	102.6785
409.15	102.6166
409.28	105.2219
409.41	92.6986
409.55	91.3102
409.68	104.8519
409.81	102.3804
409.94	92.2598
410.07	109.1735
410.20	111.0421
410.34	104.2667
410.47	101.5300
410.60	105.6368
410.73	99.2671
410.86	100.1838
411.00	100.6336
411.13	103.4448
411.26	96.3003
411.39	97.6893
411.52	95.1569
411.66	97.4533
411.79	96.0910
411.92	101.3295
412.05	101.7389
412.18	97.6681
412.31	92.4282
412.45	102.5551
412.58	102.3687
412.71	94.1992
412.84	102.2823
412.97	109.0698
413.11	101.3412
413.24	91.6206
413.37	103.3377
413.50	105.0054
413.63	98.4158
413.76	97.2741
413.90	108.3708
414.03	104.9653
414.16	100.6412
414.29	93.2646
414.42	98.5782
414.56	96.1566
414.69	95.8494
414.82	93.2110
414.95	101.9866
415.08	95.1560
415.21	103.9170
415.35	101.3756
415.48	98.4920
415.61	109.0280
415.74	112.8956
415.87	90.8862
416.00	95.0828
416.14	105.8125
416.27	97.4916
416.40	94.3178
416.53	107.3711
416.66	110.7616
416.79	101.1507
416.93	99.1596
417.06	101.5803
417.19	102.6958
417.32	103.5058
417.45	99.3715
417.58	100.2937
417.72	99.9287
417.85	93.5662
417.98	92.2230
418.11	100.8575
418.24	100.7361
418.37	102.0203
418.51	100.2991
418.64	96.1632
418.77	100.5283
418.90	100.2404
419.03	92.6778
419.16	103.2970
419.29	110.8457
419.43	93.5979
419.56	92.2443
419.69	103.2922
419.82	100.6117
419.95	93.9032
420.08	97.5877
420.22	96.7562
420.35	92.8630
420.48	97.5897
420.61	92.6854
420.74	103.2511
420.87	108.8728
421.00	105.2328
421.14	94.7722
421.27	100.1744
421.40	99.6656
421.53	99.0649
421.66	103.0903
421.79	107.7727
421.93	112.1433
422.06	107.7710
422.19	104.5374
422.32	104.8672
422.45	108.4875
422.58	100.6234
422.71	97.5612
422.85	102.0101
422.98	103.3881
423.11	101.3622
423.24	104.1559
423.37	106.8017
423.50	104.6985
423.63	103.9729
423.77	101.2980
423.90	97.4538
424.03	98.7727
424.16	101.4125
424.29	101.0260
424.42	103.7793
424.55	104.9197
424.69	104.4075
424.82	105.4085
424.95	100.3467
425.08	99.0098
425.21	101.3674
425.34	100.3239
425.47	98.6777
425.60	102.2688
425.74	101.8146
425.87	99.8637
426.00	102.4116
426.13	101.4811
426.26	101.7962
426.39	97.5427
426.52	100.2018
426.66	104.1560
426.79	95.3818
426.92	91.3247
427.05	97.8970
427.18	98.6776
427.31	95.3941
427.44	100.6915
427.57	106.7532
427.71	104.6338
427.84	98.2737
427.97	95.4864
428.10	101.1145
428.23	106.3175
428.36	98.7780
428.49	97.6495
428.62	101.0040
428.76	102.6922
428.89	95.0293
429.02	95.7957
429.15	102.4316
429.28	101.3992
429.41	96.6983
429.54	93.4741
429.67	100.2315
429.81	102.1370
429.94	97.7612
430.07	91.7902
430.20	96.7369
430.33	97.3111
430.46	94.2566
430.59	99.8331
430.72	103.7752
430.85	104.1851
430.99	100.3579
431.12	96.8754
431.25	97.5242
431.38	101.5452
431.51	95.2348
431.64	95.8784
431.77	101.2283
431.90	102.0126
432.03	98.3902
432.17	100.4908
432.30	103.8065
432.43	101.7811
432.56	98.7070
432.69	96.5341
432.82	98.9890
432.95	98.1622
433.08	98.7996
433.21	98.3796
433.35	102.5569
433.48	101.0080
433.61	101.8104
433.74	98.9534
433.87	101.5868
434.00	100.3547
434.13	100.3856
434.26	98.0369
434.39	102.1104
434.53	101.1005
434.66	103.2021
434.79	99.2424
434.92	103.3866
435.05	103.0622
435.18	97.5473
435.31	94.9982
435.44	100.6144
435.57	101.8446
435.70	99.0240
435.84	96.5991
435.97	98.9426
436.10	99.5870
436.23	94.9815
436.36	94.8102
436.49	101.0491
436.62	97.9722
436.75	95.9237
436.88	96.8746
437.01	101.2426
437.14	101.8229
437.28	98.7848
437.41	96.3671
437.54	99.1928
437.67	101.1176
437.80	92.8202
437.93	93.8415
438.06	100.7032
438.19	100.4711
438.32	95.2564
438.45	99.0760
438.58	101.2593
438.72	99.6746
438.85	97.2416
438.98	96.6209
439.11	99.3177
439.24	99.8864
439.37	95.7025
439.50	97.3352
439.63	100.2360
439.76	101.5141
439.89	101.0169
440.02	99.8391
440.15	99.8234
440.29	101.6757
440.42	99.5813
440.55	96.3590
440.68	102.6610
440.81	104.0932
440.94	97.4519
441.07	98.0894
441.20	103.2720
441.33	99.9636
441.46	96.9256
441.59	100.8581
441.72	102.0621
441.85	100.1082
441.99	97.1273
442.12	96.6859
442.25	96.6997
442.38	98.6512
442.51	98.5693
442.64	100.9307
442.77	102.7289
442.90	103.6088
443.03	101.4412
443.16	98.7134
443.29	100.2800
443.42	98.7095
443.55	98.6194
443.68	98.7537
443.82	102.6263
443.95	100.0518
444.08	100.9501
444.21	99.3676
444.34	99.0527
444.47	98.0945
444.60	100.2941
444.73	97.6208
444.86	97.9556
444.99	98.7543
445.12	100.4140
445.25	98.5535
445.38	100.0456
445.51	102.1389
445.64	105.4321
445.78	98.5986
445.91	97.1129
446.04	101.1380
446.17	97.7490
446.30	92.9401
446.43	100.0008
446.56	103.1615
446.69	97.8450
446.82	97.0318
446.95	98.7743
447.08	98.9549
447.21	96.8004
447.34	97.7428
447.47	100.1965
447.60	98.0280
447.73	97.3502
447.86	99.3743
447.99	99.9280
448.13	101.5862
448.26	102.2571
448.39	100.3283
448.52	101.1469
448.65	101.9067
448.78	98.5911
448.91	100.6258
449.04	100.1403
449.17	98.2695
449.30	98.7663
449.43	97.4706
449.56	96.2421
449.69	100.7776
449.82	100.0062
449.95	98.1010
450.08	101.4556
450.21	102.6813
450.34	99.1213
450.47	101.2967
450.60	104.0356
450.73	105.2979
450.87	103.8149
451.00	98.9455
451.13	99.8839
451.26	98.0456
451.39	96.0959
451.52	96.2886
451.65	101.8974
451.78	102.4998
451.91	100.1098
452.04	97.8256
452.17	100.1219
452.30	100.4890
452.43	96.2144
452.56	100.6771
452.69	100.4241
452.82	98.4791
452.95	99.5873
453.08	99.0140
453.21	98.4073
453.34	100.5175
453.47	97.5397
453.60	95.6272
453.73	98.5339
453.86	97.1217
453.99	98.1370
454.12	100.4830
454.25	101.9923
454.38	100.9867
454.52	101.2715
454.65	101.6356
454.78	101.2056
454.91	100.0817
455.04	101.4348
455.17	98.4149
455.30	98.1133
455.43	100.6032
455.56	99.1129
455.69	96.9706
455.82	100.6799
455.95	99.9448
456.08	98.5909
456.21	100.1455
456.34	100.4621
456.47	100.1018
456.60	100.5405
456.73	98.8131
456.86	98.9079
456.99	100.2382
457.12	98.1067
457.25	97.0255
457.38	98.0005
457.51	98.0152
457.64	97.6284
457.77	99.2271
457.90	99.6420
458.03	99.7739
458.16	98.7920
458.29	99.3594
458.42	99.9505
458.55	100.9483
458.68	99.3650
458.81	96.3980
458.94	98.2234
459.07	99.8771
459.20	98.8868
459.33	98.0384
459.46	101.2141
459.59	101.1764
459.72	97.5017
459.85	96.7344
459.98	99.5473
460.11	101.0765
460.24	97.1213
460.37	98.0822
460.50	99.9001
460.63	99.9400
460.76	97.3328
460.89	98.6743
461.02	100.5800
461.15	100.3488
461.28	97.5333
461.41	99.8010
461.54	100.5681
461.67	98.3402
461.80	98.1383
461.93	99.3003
462.06	98.8977
462.19	99.9196
462.32	99.2574
462.45	99.2549
462.58	99.8507
462.71	100.1881
462.84	98.1671
462.97	98.5538
463.10	97.3706
463.23	97.5431
463.36	98.0715
463.49	98.2027
463.62	99.0387
463.75	100.1944
463.88	102.2825
464.01	98.3925
464.14	99.6600
464.27	100.8370
464.40	99.5664
464.53	97.5252
464.66	98.9226
464.79	98.9445
464.92	97.8210
465.05	98.3213
465.18	98.5903
465.31	100.2625
465.44	100.2292
465.57	97.4446
465.70	98.0773
465.83	99.8183
465.96	98.2147
466.09	97.0488
466.22	100.5977
466.35	100.9392
466.48	99.4918
466.61	99.6229
466.74	99.2486
466.87	98.1960
467.00	96.8547
467.13	97.8079
467.26	99.6937
467.39	100.7433
467.52	99.3953
467.65	100.4360
467.78	99.2677
467.91	97.8649
468.04	97.7525
468.17	100.1484
468.30	100.2734
468.43	99.8728
468.56	99.2949
468.69	100.5891
468.82	100.1332
468.95	100.1621
469.08	101.1976
469.21	100.5019
469.34	98.1575
469.47	99.0223
469.60	98.9077
469.73	97.8634
469.86	100.8700
469.99	102.2768
470.11	100.1945
470.24	99.7705
470.37	100.9938
470.50	100.3578
470.63	99.3586
470.76	98.8833
470.89	100.5248
471.02	100.8103
471.15	98.2546
471.28	97.5943
471.41	99.4881
471.54	99.4421
471.67	97.2416
471.80	98.4150
471.93	100.2584
472.06	101.2600
472.19	98.3691
472.32	98.8918
472.45	99.6908
472.58	99.1323
472.71	98.1319
472.84	100.3425
472.97	100.0706
473.10	100.7592
473.23	99.5459
473.36	98.7772
473.49	98.1332
473.62	98.4741
473.74	97.9710
473.87	99.9624
474.00	100.1491
474.13	99.7251
474.26	100.4062
474.39	100.1557
474.52	98.7117
474.65	100.0022
474.78	100.8885
474.91	99.0319
475.04	98.7205
475.17	99.5010
475.30	97.9465
475.43	97.6475
475.56	99.2469
475.69	100.3271
475.82	99.4295
475.95	100.4527
476.08	100.6868
476.21	100.6973
476.34	99.0105
476.46	100.1786
476.59	99.9101
476.72	100.1296
476.85	98.9587
476.98	99.0945
477.11	99.4262
477.24	98.8428
477.37	97.7962
477.50	99.0194
477.63	99.7580
477.76	99.1731
477.89	98.9399
478.02	98.9844
478.15	98.9263
478.28	99.3501
478.41	98.2958
478.54	99.0397
478.66	99.5200
478.79	99.5072
478.92	98.8032
479.05	99.6815
479.18	98.9722
479.31	99.1869
479.44	99.0448
479.57	98.9613
479.70	99.6499
479.83	100.4822
479.96	98.6683
480.09	98.1505
480.22	98.5465
480.35	97.9443
480.48	97.8025
480.60	98.6810
480.73	99.4316
480.86	99.6340
480.99	99.4868
481.12	98.4988
481.25	99.7617
481.38	99.8082
481.51	98.9652
481.64	99.0046
481.77	100.0274
481.90	99.6346
482.03	98.7117
482.16	99.3218
482.29	99.4229
482.41	99.6233
482.54	99.4390
482.67	99.7914
482.80	100.1903
482.93	99.5732
483.06	98.9611
483.19	99.2923
483.32	99.7499
483.45	98.9307
483.58	98.7861
483.71	98.5466
483.84	98.0760
483.97	97.7820
484.09	97.8946
484.22	98.6096
484.35	98.7970
484.48	98.6181
484.61	98.6988
484.74	99.0716
484.87	98.7916
485.00	99.1876
485.13	99.2063
485.26	99.6374
485.39	98.6881
485.52	98.4373
485.64	97.9041
485.77	98.6067
485.90	98.3148
486.03	99.3814
486.16	99.4743
486.29	99.5195
486.42	99.2622
486.55	98.7825
486.68	98.3074
486.81	98.9988
486.94	98.9913
487.06	98.3880
487.19	98.7493
487.32	99.0323
487.45	98.4613
487.58	99.0175
487.71	99.2650
487.84	98.9057
487.97	98.7038
488.10	99.2193
488.23	98.5076
488.35	98.8408
488.48	99.3023
488.61	99.4412
488.74	99.0909
488.87	98.7203
489.00	98.6175
489.13	98.7791
489.26	98.7035
489.39	98.5851
489.52	99.2835
489.64	99.0880
489.77	98.8558
489.90	98.6238
490.03	98.8474
490.16	99.0639
490.29	98.6440
490.42	98.8588
490.55	98.8703
490.68	99.2543
490.81	98.3853
490.93	98.7774
491.06	98.6588
491.19	98.4099
491.32	98.1162
491.45	98.5935
491.58	98.7648
491.71	99.0139
491.84	98.8276
491.97	98.6634
492.09	99.1629
492.22	98.8906
492.35	98.6888
492.48	99.4291
492.61	99.1253
492.74	98.7557
492.87	99.0822
493.00	98.6781
493.12	98.4539
493.25	98.9822
493.38	99.4287
493.51	99.0763
493.64	99.2667
493.77	99.3367
493.90	98.7510
494.03	98.2514
494.16	98.7553
494.28	99.2797
494.41	98.6695
494.54	98.8866
494.67	99.5833
494.80	99.2648
494.93	98.9498
495.06	99.7514
495.19	100.1905
495.31	99.9236
495.44	99.8097
495.57	99.9640
495.70	100.1896
495.83	100.1462
495.96	99.4204
496.09	99.1578
496.22	99.5999
496.34	99.3330
496.47	98.7507
496.60	98.9353
496.73	99.6884
496.86	98.9011
496.99	99.0117
497.12	99.2631
497.24	99.2518
497.37	99.0094
497.50	99.3087
497.63	98.5160
497.76	98.1869
497.89	99.1364
498.02	99.2020
498.15	98.9526
498.27	99.1909
498.40	99.5356
498.53	98.8016
498.66	99.0677
498.79	99.0435
498.92	99.1501
499.05	99.3114
499.17	98.7677
499.30	98.3632
499.43	98.8791
499.56	98.8149
499.69	98.6332
499.82	99.3124
499.95	99.4730
500.07	99.1766
500.20	98.5055
500.33	98.6538
500.46	98.9523
500.59	98.7939
500.72	98.4627
500.85	99.0862
500.97	99.4967
501.10	99.2734
501.23	98.7022
501.36	98.7583
501.49	99.1812
501.62	98.2933
501.75	98.5337
501.87	98.9872
502.00	98.9836
502.13	98.9082
502.26	99.2015
502.39	99.0516
502.52	99.0321
502.64	98.7218
502.77	98.5829
502.90	99.0142
503.03	98.9350
503.16	98.5659
503.29	99.0137
503.42	99.2774
503.54	99.1877
503.67	98.6108
503.80	99.6278
503.93	99.8569
504.06	99.2584
504.19	99.1527
504.31	99.4156
504.44	98.8391
504.57	99.0152
504.70	99.2351
504.83	99.2416
504.96	99.4683
505.08	98.9196
505.21	98.5010
505.34	98.7725
505.47	98.8125
505.60	98.8951
505.73	98.8738
505.85	99.2391
505.98	99.5236
506.11	99.4468
506.24	99.2481
506.37	99.4771
506.50	99.3440
506.62	98.9761
506.75	98.5587
506.88	98.8069
507.01	98.9499
507.14	98.8011
507.27	98.8008
507.39	99.3491
507.52	98.8749
507.65	99.3675
507.78	99.2036
507.91	99.0328
508.04	98.7506
508.16	99.0161
508.29	99.1835
508.42	99.5806
508.55	99.1614
508.68	99.3958
508.81	99.5352
508.93	99.0114
509.06	98.7197
509.19	99.4363
509.32	99.0825
509.45	99.1384
509.57	99.2679
509.70	99.4473
509.83	99.2413
509.96	99.5004
510.09	99.3999
510.22	99.5302
510.34	99.0363
510.47	99.1175
510.60	99.0030
510.73	98.8716
510.86	98.7791
510.98	98.9218
511.11	98.7560
511.24	98.9507
511.37	99.0433
511.50	98.9794
511.63	99.2649
511.75	99.2992
511.88	99.2028
512.01	99.1565
512.14	99.1906
512.27	99.1428
512.39	99.0853
512.52	99.0950
512.65	99.1640
512.78	99.0201
512.91	98.8828
513.03	98.8370
513.16	98.9274
513.29	98.7875
513.42	98.6342
513.55	99.0676
513.67	99.4531
513.80	99.1747
513.93	98.9846
514.06	99.2523
514.19	98.7347
514.31	98.7086
514.44	98.6985
514.57	98.5867
514.70	98.8360
514.83	99.2411
514.95	99.0334
515.08	99.1714
515.21	99.5464
515.34	99.5836
515.47	99.4123
515.59	99.4730
515.72	99.1526
515.85	99.2889
515.98	98.9404
516.11	98.7656
516.23	98.9098
516.36	99.4348
516.49	99.0895
516.62	98.8812
516.75	99.4480
516.87	99.2918
517.00	98.5422
517.13	98.6375
517.26	99.3540
517.39	98.8135
517.51	98.2844
517.64	99.0469
517.77	99.0439
517.90	98.7329
518.02	99.1796
518.15	99.5000
518.28	99.1420
518.41	99.0401
518.54	98.9115
518.66	98.7614
518.79	98.8816
518.92	98.8366
519.05	98.6398
519.18	98.6254
519.30	98.4517
519.43	98.4593
519.56	98.3178
519.69	98.8023
519.81	99.0905
519.94	99.0813
520.07	99.0745
520.20	99.2863
520.33	99.2654
520.45	99.0427
520.58	98.9127
520.71	98.9263
520.84	99.1432
520.96	99.2187
521.09	98.9859
521.22	98.9789
521.35	99.2857
521.48	99.3592
521.60	99.1233
521.73	98.8099
521.86	99.1390
521.99	99.0949
522.11	98.6875
522.24	98.8333
522.37	98.8795
522.50	99.0790
522.62	98.8741
522.75	99.1829
522.88	99.0617
523.01	99.3708
523.14	98.8444
523.26	99.2241
523.39	98.9050
523.52	99.0625
523.65	99.2887
523.77	99.4571
523.90	98.9953
524.03	99.1657
524.16	99.1146
524.28	98.9701
524.41	99.2757
524.54	99.4330
524.67	99.2034
524.79	98.8470
524.92	99.0648
525.05	98.6187
525.18	98.8287
525.31	98.4427
525.43	98.9908
525.56	99.3883
525.69	99.4338
525.82	99.0448
525.94	99.8119
526.07	99.7737
526.20	99.0270
526.33	99.0659
526.45	99.2509
526.58	99.2304
526.71	98.8648
526.84	99.1926
526.96	99.1019
527.09	99.0967
527.22	99.2449
527.35	99.0423
527.47	99.1326
527.60	99.1621
527.73	98.9530
527.86	98.7350
527.98	99.2376
528.11	98.7762
528.24	99.0499
528.37	99.0993
528.49	98.7064
528.62	98.9317
528.75	99.2296
528.88	98.9949
529.00	99.2370
529.13	99.6542
529.26	98.9029
529.39	98.6581
529.51	99.0531
529.64	99.0234
529.77	98.7764
529.90	99.1817
530.02	99.6164
530.15	99.4033
530.28	99.2877
530.40	99.3587
530.53	99.4760
530.66	98.9670
530.79	98.9117
530.91	98.8256
531.04	98.9340
531.17	98.7668
531.30	99.0565
531.42	98.5444
531.55	98.8325
531.68	98.9681
531.81	98.9098
531.93	99.0666
532.06	99.4637
532.19	99.1515
532.31	98.9079
532.44	99.2053
532.57	99.0187
532.70	98.9055
532.82	98.7679
532.95	98.6333
533.08	98.5840
533.21	98.8565
533.33	99.1590
533.46	99.0324
533.59	99.5480
533.71	99.6904
533.84	99.5801
533.97	99.4147
534.10	99.6643
534.22	99.4160
534.35	98.8823
534.48	98.7905
534.61	98.9296
534.73	98.8743
534.86	98.6514
534.99	98.9643
535.11	99.0308
535.24	99.1207
535.37	99.4435
535.50	99.4441
535.62	99.2091
535.75	99.1213
535.88	98.7855
536.00	98.3679
536.13	98.4425
536.26	98.7025
536.39	98.4419
536.51	98.6828
536.64	99.0793
536.77	99.1104
536.89	98.8871
537.02	99.1358
537.15	98.9414
537.28	98.9196
537.40	98.7357
537.53	98.7895
537.66	98.9528
537.78	99.2476
537.91	99.2451
538.04	99.8822
538.17	99.7780
538.29	99.3280
538.42	99.1719
538.55	99.2922
538.67	98.9253
538.80	99.4332
538.93	99.5092
539.05	99.4063
539.18	99.1775
539.31	99.4962
539.44	99.1441
539.56	99.4377
539.69	99.8255
539.82	100.0266
539.94	99.3361
540.07	99.3630
540.20	99.2849
540.32	98.8624
540.45	98.3699
540.58	98.9508
540.71	99.1667
540.83	99.2214
540.96	98.9929
541.09	99.0188
541.21	98.9980
541.34	98.8927
541.47	98.6946
541.59	98.6287
541.72	98.9082
541.85	99.1028
541.98	99.0592
542.10	98.7096
542.23	99.0808
542.36	99.1397
542.48	98.9600
542.61	98.8389
542.74	99.3854
542.86	99.5715
542.99	99.4471
543.12	99.3842
543.24	99.2917
543.37	99.1694
543.50	98.9202
543.62	99.1232
543.75	99.1531
543.88	99.1549
544.01	99.0402
544.13	99.1625
544.26	99.0070
544.39	98.7351
544.51	98.6853
544.64	98.8936
544.77	98.6740
544.89	98.7940
545.02	98.7404
545.15	98.6109
545.27	98.6175
545.40	98.6844
545.53	98.7346
545.65	99.1066
545.78	99.3735
545.91	99.1623
546.03	99.4093
546.16	99.3652
546.29	99.2153
546.41	99.4861
546.54	99.5137
546.67	99.2319
546.79	99.4556
546.92	99.3867
547.05	99.2102
547.17	99.2591
547.30	99.5412
547.43	99.1850
547.56	99.2999
547.68	99.2274
547.81	99.2244
547.94	99.1449
548.06	98.9160
548.19	98.8962
548.32	99.0224
548.44	98.9217
548.57	98.5725
548.70	98.7448
548.82	98.7019
548.95	98.7424
549.08	98.4624
549.20	98.6915
549.33	98.8661
549.45	99.1858
549.58	98.9977
549.71	99.7061
549.83	99.7204
549.96	99.5627
550.09	99.1014
550.21	99.2741
550.34	98.9352
550.47	99.2470
550.59	99.2310
550.72	98.9668
550.85	98.9693
550.97	99.2161
551.10	98.7692
551.23	98.8170
551.35	99.4013
551.48	99.5255
551.61	99.1211
551.73	99.1912
551.86	99.2632
551.99	98.8039
552.11	98.4421
552.24	98.7424
552.37	98.8721
552.49	98.8477
552.62	99.1551
552.75	99.4031
552.87	99.3588
553.00	99.4246
553.12	99.3285
553.25	99.1429
553.38	99.0312
553.50	99.2078
553.63	99.0648
553.76	99.2209
553.88	99.4846
554.01	99.4474
554.14	99.0990
554.26	99.3748
554.39	99.3414
554.52	99.3322
554.64	99.3155
554.77	99.3871
554.89	99.1570
555.02	99.1435
555.15	99.0425
555.27	98.8382
555.40	99.0499
555.53	99.2707
555.65	99.1243
555.78	99.0209
555.91	99.5309
556.03	99.6659
556.16	99.4469
556.29	99.3664
556.41	99.7009
556.54	99.6259
556.66	99.0204
556.79	99.0229
556.92	99.4783
557.04	99.1752
557.17	98.8874
557.30	99.1733
557.42	99.0077
557.55	98.7326
557.67	98.6897
557.80	98.7091
557.93	99.0344
558.05	99.1968
558.18	99.1068
558.31	99.0244
558.43	99.1240
558.56	98.9924
558.68	98.9142
558.81	98.6726
558.94	98.9534
559.06	98.9296
559.19	98.8031
559.32	98.7780
559.44	99.0901
559.57	98.9836
559.69	98.8117
559.82	98.7790
559.95	99.0807
560.07	99.0958
560.20	98.9012
560.33	99.2070
560.45	98.9321
560.58	98.8466
560.70	98.8969
560.83	99.0479
560.96	98.7499
561.08	99.1970
561.21	99.3533
561.33	98.9721
561.46	99.0385
561.59	99.2226
561.71	99.1247
561.84	98.8052
561.97	99.3335
562.09	99.4043
562.22	99.2797
562.34	99.2854
562.47	99.4473
562.60	99.3556
562.72	99.1909
562.85	99.3098
562.97	99.2668
563.10	99.2130
563.23	99.0183
563.35	98.9624
563.48	98.7872
563.60	98.9614
563.73	99.0287
563.86	99.1254
563.98	99.3533
564.11	99.2563
564.23	99.1066
564.36	98.9046
564.49	98.9886
564.61	98.9508
564.74	99.0156
564.86	98.9472
564.99	98.9100
565.12	98.8990
565.24	98.8148
565.37	98.8538
565.49	98.9441
565.62	99.3560
565.75	98.8469
565.87	98.8422
566.00	99.2586
566.12	99.0086
566.25	98.8303
566.38	99.0977
566.50	99.0280
566.63	98.7910
566.75	99.0554
566.88	98.9440
567.01	99.1217
567.13	99.3590
567.26	99.1202
567.38	99.1102
567.51	99.0425
567.64	98.9277
567.76	98.8089
567.89	99.0281
568.01	98.8366
568.14	98.8574
568.26	98.9369
568.39	98.8555
568.52	98.8246
568.64	98.9596
568.77	98.9602
568.89	99.0967
569.02	99.1697
569.15	99.0122
569.27	98.7945
569.40	98.8087
569.52	98.7390
569.65	98.8461
569.77	99.1055
569.90	99.0367
570.03	99.1963
570.15	99.1873
570.28	99.2983
570.40	99.2058
570.53	99.4053
570.66	99.3614
570.78	99.4449
570.91	99.1937
571.03	99.1491
571.16	99.3118
571.28	99.2557
571.41	99.3076
571.54	99.2788
571.66	99.2496
571.79	99.1589
571.91	99.0034
572.04	98.5800
572.16	98.6419
572.29	98.6783
572.42	98.7176
572.54	98.6731
572.67	98.9320
572.79	98.9063
572.92	98.8967
573.04	99.0428
573.17	99.3911
573.29	99.0868
573.42	98.9799
573.55	99.0091
573.67	98.9208
573.80	98.8573
573.92	98.9649
574.05	99.0087
574.17	99.0081
574.30	99.0352
574.43	98.8164
574.55	99.0394
574.68	99.1045
574.80	99.1853
574.93	99.1596
575.05	99.2684
575.18	99.0785
575.30	98.9121
575.43	98.9724
575.56	98.9717
575.68	99.1218
575.81	99.1519
575.93	99.3176
576.06	99.3632
576.18	99.3723
576.31	98.9399
576.43	98.9826
576.56	99.0325
576.69	99.0357
576.81	99.0293
576.94	99.2808
577.06	99.3805
577.19	99.2869
577.31	98.8744
577.44	98.8375
577.56	98.7459
577.69	98.8358
577.82	99.1961
577.94	99.2658
578.07	99.0430
578.19	99.3627
578.32	99.3095
578.44	98.9431
578.57	99.1722
578.69	99.1954
578.82	98.8556
578.94	98.7486
579.07	98.7432
579.19	98.6686
579.32	98.9585
579.45	99.2572
579.57	99.2478
579.70	99.4369
579.82	99.3113
579.95	99.2948
580.07	99.1178
580.20	99.2144
580.32	99.2153
580.45	99.4085
580.57	99.2933
580.70	99.2332
580.82	99.5940
580.95	99.3225
581.08	99.3450
581.20	99.2752
581.33	99.3535
581.45	98.7601
581.58	99.1673
581.70	99.0107
581.83	98.9694
581.95	99.0076
582.08	99.2399
582.20	99.0514
582.33	99.1915
582.45	99.1693
582.58	99.1690
582.70	99.2033
582.83	99.1307
582.95	99.0721
583.08	99.1064
583.21	99.1840
583.33	99.4616
583.46	99.5262
583.58	99.4406
583.71	99.5747
583.83	99.5324
583.96	99.1883
584.08	99.0802
584.21	99.2352
584.33	99.3481
584.46	99.0903
584.58	98.9026
584.71	99.0433
584.83	99.1020
584.96	98.8124
585.08	98.8139
585.21	99.0383
585.33	98.9141
585.46	98.9338
585.58	99.1160
585.71	99.1203
585.83	99.2340
585.96	99.2093
586.08	99.0364
586.21	99.2031
586.33	99.3282
586.46	99.2544
586.59	99.2362
586.71	99.1694
586.84	99.1004
586.96	99.1695
587.09	98.7819
587.21	98.8198
587.34	99.0065
587.46	98.7168
587.59	98.7146
587.71	99.2418
587.84	99.4012
587.96	99.1697
588.09	99.2449
588.21	99.1345
588.34	98.9426
588.46	98.9113
588.59	99.1503
588.71	99.2298
588.84	98.9931
588.96	98.9821
589.09	99.0723
589.21	99.0468
589.34	98.8796
589.46	99.0382
589.59	99.1665
589.71	99.0497
589.84	98.8546
589.96	98.8718
590.09	98.9706
590.21	98.8503
590.34	99.0185
590.46	99.1088
590.59	98.9987
590.71	99.1955
590.84	98.9976
590.96	98.8028
591.09	98.9523
591.21	99.4122
591.34	99.0830
591.46	99.2377
591.59	99.1345
591.71	99.2553
591.83	99.0183
591.96	99.2884
592.08	99.3924
592.21	99.6166
592.33	99.6088
592.46	99.6046
592.58	99.4498
592.71	99.4340
592.83	99.1559
592.96	99.0591
593.08	99.2244
593.21	99.3935
593.33	99.4332
593.46	99.4880
593.58	99.3870
593.71	99.4749
593.83	99.1360
593.96	98.9715
594.08	99.1024
594.21	99.0159
594.33	98.9504
594.46	99.3712
594.58	99.5157
594.71	99.5131
594.83	99.1671
594.96	98.9847
595.08	98.9510
595.20	99.0524
595.33	98.6056
595.45	99.0120
595.58	99.2445
595.70	99.1901
595.83	98.9474
595.95	99.3909
596.08	99.5273
596.20	99.3798
596.33	99.4387
596.45	99.7211
596.58	99.6012
596.70	99.5194
596.83	99.4026
596.95	99.4851
597.08	99.2890
597.20	99.2942
597.32	99.2200
597.45	99.2955
597.57	99.2308
597.70	99.2053
597.82	99.3705
597.95	99.4078
598.07	99.4173
598.20	99.4275
598.32	99.3261
598.45	99.0929
598.57	99.1322
598.70	99.1624
598.82	98.8637
598.94	98.8886
599.07	99.0298
599.19	99.3143
599.32	99.0617
599.44	99.2089
599.57	99.3255
599.69	99.5131
599.82	98.9638
599.94	99.1465
600.07	99.4029
600.19	99.5431
600.31	99.0779
600.44	99.1991
600.56	99.2726
600.69	99.0764
600.81	98.9466
600.94	99.1508
601.06	99.1393
601.19	99.3432
601.31	99.1626
601.44	99.1468
601.56	99.2021
601.68	99.3717
601.81	98.9597
601.93	99.3242
602.06	99.5622
602.18	99.4440
602.31	99.3133
602.43	99.5162
602.56	99.3645
602.68	99.0224
602.80	99.2833
602.93	99.3233
603.05	99.2588
603.18	99.3514
603.30	99.5790
603.43	99.3929
603.55	99.3882
603.68	99.3585
603.80	99.1340
603.92	98.9446
604.05	99.1209
604.17	99.0740
604.30	98.9895
604.42	98.8588
604.55	98.8997
604.67	98.7748
604.79	98.7529
604.92	98.8963
605.04	99.1124
605.17	99.1038
605.29	98.9110
605.42	99.0811
605.54	99.0320
605.66	98.9802
605.79	98.8757
605.91	99.0980
606.04	98.8699
606.16	98.8466
606.29	99.0177
606.41	99.2620
606.53	99.1818
606.66	99.4854
606.78	99.6291
606.91	99.5190
607.03	99.5359
607.16	99.4779
607.28	99.1838
607.40	99.1392
607.53	99.1815
607.65	99.1526
607.78	99.0601
607.90	99.3582
608.03	99.3437
608.15	99.4617
608.27	99.4448
608.40	99.6899
608.52	99.3377
608.65	99.4860
608.77	99.1856
608.89	98.8964
609.02	98.9781
609.14	99.0929
609.27	99.0201
609.39	99.4884
609.52	99.7329
609.64	99.6742
609.76	99.5802
609.89	99.2701
610.01	99.0197
610.14	99.0658
610.26	98.8420
610.38	99.1569
610.51	99.4523
610.63	99.3196
610.76	99.2360
610.88	99.1560
611.01	98.9985
611.13	99.0605
611.25	99.2036
611.38	99.3550
611.50	99.5547
611.63	99.6812
611.75	99.5851
611.87	99.3169
612.00	99.1638
612.12	99.4365
612.25	99.3629
612.37	99.3205
612.49	99.2287
612.62	99.2493
612.74	98.9589
612.87	99.0229
612.99	98.8745
613.11	98.9076
613.24	98.8783
613.36	98.9564
613.49	98.8904
613.61	98.9092
613.73	99.2411
613.86	99.3193
613.98	99.2423
614.11	99.1184
614.23	99.1450
614.35	99.0827
614.48	99.0468
614.60	99.0081
614.72	99.1540
614.85	99.3102
614.97	99.3578
615.10	99.2751
615.22	99.3185
615.34	99.4265
615.47	99.3771
615.59	99.2689
615.72	99.5414
615.84	99.2488
615.96	99.1216
616.09	99.2364
616.21	99.1407
616.34	98.8903
616.46	99.2465
616.58	99.2232
616.71	99.0416
616.83	99.0333
616.95	99.0902
617.08	99.1653
617.20	99.2902
617.33	99.1816
617.45	99.3519
617.57	99.4078
617.70	99.2151
617.82	98.9838
617.95	99.1359
618.07	98.9904
618.19	98.7861
618.32	98.9534
618.44	99.2148
618.56	99.4584
618.69	99.3397
618.81	99.5503
618.94	99.4744
619.06	99.2702
619.18	99.1307
619.31	99.1629
619.43	98.9148
619.55	99.2122
619.68	99.4465
619.80	99.0615
619.92	99.0638
620.05	99.4141
620.17	99.3769
620.30	99.1213
620.42	99.3958
620.54	99.5824
620.67	99.4105
620.79	98.9221
620.91	98.9226
621.04	98.9220
621.16	99.0770
621.29	99.0805
621.41	99.3343
621.53	99.6010
621.66	99.4687
621.78	98.9967
621.90	99.1462
622.03	99.1966
622.15	99.0460
622.27	99.3025
622.40	99.4770
622.52	99.5803
622.64	99.5863
622.77	99.3368
622.89	99.2746
623.02	99.3785
623.14	99.1251
623.26	98.9012
623.39	99.1970
623.51	99.3573
623.63	99.2032
623.76	99.1520
623.88	99.3810
624.00	99.2882
624.13	99.1483
624.25	99.1767
624.37	99.0581
624.50	99.2889
624.62	99.5460
624.75	99.3593
624.87	99.6128
624.99	99.8301
625.12	99.0957
625.24	98.7947
625.36	98.9115
625.49	98.6390
625.61	98.3845
625.73	98.9909
625.86	99.1143
625.98	99.2507
626.10	99.2752
626.23	99.4117
626.35	99.3500
626.47	99.3020
626.60	99.1782
626.72	99.1476
626.84	99.3158
626.97	99.4015
627.09	99.1389
627.21	99.0252
627.34	99.4020
627.46	99.3936
627.58	99.0335
627.71	99.6657
627.83	99.6104
627.95	99.0159
628.08	98.9406
628.20	99.2938
628.32	98.9790
628.45	99.0830
628.57	99.3207
628.69	99.1339
628.82	99.1174
628.94	99.1297
629.06	99.1265
629.19	99.4548
629.31	99.6327
629.43	99.5432
629.56	99.3287
629.68	99.4905
629.80	99.3691
629.93	99.3489
630.05	99.2488
630.17	99.5806
630.30	99.4255
630.42	99.4893
630.54	99.6951
630.67	99.4998
630.79	99.3965
630.91	99.4074
631.04	99.3021
631.16	99.1782
631.28	99.5010
631.41	99.2881
631.53	99.1629
631.65	98.9842
631.78	98.8471
631.90	99.0152
632.02	98.9296
632.14	99.0838
632.27	99.2552
632.39	98.9826
632.51	98.7623
632.64	99.0488
632.76	99.1002
632.88	99.1947
633.01	99.5142
633.13	99.1479
633.25	99.3031
633.38	99.3879
633.50	99.3374
633.62	99.4980
633.75	99.7813
633.87	99.6334
633.99	99.7248
634.11	99.5781
634.24	99.4998
634.36	99.5759
634.48	99.2952
634.61	99.2487
634.73	99.3759
634.85	99.3885
634.98	99.4311
635.10	99.3124
635.22	99.1478
635.35	99.3805
635.47	99.3391
635.59	99.2175
635.71	99.4496
635.84	99.3485
635.96	99.2213
636.08	99.1136
636.21	99.0175
636.33	99.2091
636.45	99.4398
636.58	99.0269
636.70	99.1702
636.82	99.6092
636.94	99.4161
637.07	99.1776
637.19	99.4319
637.31	99.5594
637.44	99.2655
637.56	99.3652
637.68	99.5256
637.81	99.9626
637.93	99.6824
638.05	99.3016
638.17	99.3814
638.30	99.4296
638.42	99.0053
638.54	99.1259
638.67	99.4637
638.79	99.5423
638.91	99.5427
639.03	99.6670
639.16	99.7116
639.28	99.8707
639.40	99.5345
639.53	99.5273
639.65	99.6062
639.77	99.4622
639.89	99.2879
640.02	99.5866
640.14	99.2543
640.26	99.1267
640.39	99.2097
640.51	99.0546
640.63	98.7908
640.75	99.0793
640.88	99.0167
641.00	98.5803
641.12	98.9538
641.24	99.3850
641.37	99.0200
641.49	99.1815
641.61	99.6014
641.74	99.6252
641.86	99.2377
641.98	99.5816
642.10	99.5861
642.23	99.5985
642.35	99.2741
642.47	99.2094
642.60	99.2276
642.72	99.0443
642.84	98.9249
642.96	98.9776
643.09	99.2105
643.21	99.2810
643.33	99.3321
643.45	99.2861
643.58	99.5211
643.70	99.4369
643.82	99.3577
643.94	99.3946
644.07	99.4959
644.19	99.2680
644.31	99.3634
644.44	99.3655
644.56	99.3889
644.68	99.5048
644.80	99.7013
644.93	99.5929
645.05	99.6371
645.17	99.6367
645.29	99.5627
645.42	99.2171
645.54	99.1415
645.66	99.0881
645.78	98.9058
645.91	98.6458
646.03	98.9360
646.15	99.0679
646.27	99.0844
646.40	99.0576
646.52	99.4256
646.64	99.5308
646.76	99.3007
646.89	99.1293
647.01	99.0422
647.13	99.1700
647.25	99.0226
647.38	99.0394
647.50	99.4080
647.62	99.8184
647.74	99.4359
647.87	99.1554
647.99	99.3036
648.11	99.2925
648.23	98.9804
648.36	99.1667
648.48	99.5288
648.60	99.7400
648.72	99.1523
648.85	99.2229
648.97	99.2228
649.09	99.1307
649.21	98.9299
649.34	99.2796
649.46	99.3933
649.58	99.5481
649.70	99.3702
649.83	99.2906
649.95	99.2513
650.07	99.1395
650.19	98.8449
650.32	98.8796
650.44	98.9916
650.56	99.0012
650.68	99.0468
650.81	98.9627
650.93	99.0588
651.05	98.8702
651.17	98.9048
651.29	98.8818
651.42	99.1802
651.54	99.3603
651.66	99.4042
651.78	98.9643
651.91	98.9918
652.03	99.0321
652.15	98.8998
652.27	99.1238
652.40	99.6264
652.52	99.8426
652.64	99.3220
652.76	99.2869
652.88	99.2566
653.01	99.4328
653.13	99.0776
653.25	99.3075
653.37	99.3112
653.50	99.3889
653.62	98.8906
653.74	98.9085
653.86	99.2149
653.98	99.2877
654.11	99.2219
654.23	99.2144
654.35	99.2954
654.47	99.2730
654.60	99.4810
654.72	99.1364
654.84	99.4292
654.96	99.5393
655.08	99.4566
655.21	99.1222
655.33	99.3969
655.45	99.4361
655.57	99.1910
655.70	98.8879
655.82	98.8797
655.94	99.1289
656.06	98.9275
656.18	98.9999
656.31	99.3582
656.43	99.5344
656.55	99.3139
656.67	99.3148
656.79	99.5596
656.92	99.6144
657.04	99.2691
657.16	99.3150
657.28	99.3317
657.40	99.3531
657.53	99.1388
657.65	99.1037
657.77	99.1161
657.89	99.3231
658.01	99.0101
658.14	99.0110
658.26	99.3653
658.38	99.2502
658.50	98.7723
658.62	98.9566
658.75	98.9475
658.87	99.1308
658.99	99.1919
659.11	99.2426
659.23	99.3142
659.36	99.4008
659.48	99.2314
659.60	99.2930
659.72	99.6194
659.84	99.5989
659.97	99.1572
660.09	98.8755
660.21	98.9928
660.33	99.1865
660.45	99.0132
660.58	99.1662
660.70	99.5270
660.82	99.1747
660.94	98.6840
661.06	98.5551
661.19	98.8163
661.31	98.6170
661.43	98.5303
661.55	98.5958
661.67	98.9653
661.80	98.9254
661.92	98.9637
662.04	99.1023
662.16	99.4760
662.28	99.3361
662.40	99.2568
662.53	99.4194
662.65	99.3398
662.77	99.3085
662.89	99.4443
663.01	99.4887
663.14	99.2035
663.26	99.4739
663.38	99.2674
663.50	98.8864
663.62	98.9308
663.74	99.1078
663.87	98.8968
663.99	98.5588
664.11	98.8462
664.23	98.9858
664.35	98.8368
664.48	99.0392
664.60	99.5978
664.72	99.6142
664.84	99.2997
664.96	99.4202
665.08	99.2430
665.21	99.3752
665.33	99.2187
665.45	99.2168
665.57	99.2037
665.69	99.2778
665.81	99.0592
665.94	98.9740
666.06	99.0477
666.18	99.3356
666.30	99.2181
666.42	99.1080
666.54	99.3780
666.67	99.2729
666.79	98.9551
666.91	99.1678
667.03	99.1825
667.15	99.0770
667.27	99.3083
667.40	99.0198
667.52	98.8484
667.64	99.0818
667.76	98.9487
667.88	98.7626
668.00	99.0108
668.13	99.1398
668.25	99.0497
668.37	99.0283
668.49	99.3673
668.61	99.5683
668.73	99.4946
668.85	99.3070
668.98	99.6016
669.10	99.3533
669.22	98.9369
669.34	99.1171
669.46	99.1156
669.58	98.8738
669.71	99.0779
669.83	99.3170
669.95	99.1581
670.07	99.1997
670.19	99.4677
670.31	99.4138
670.43	99.3101
670.56	99.2739
670.68	99.4801
670.80	98.9930
670.92	98.9096
671.04	99.1706
671.16	99.3224
671.28	99.0102
671.41	99.3954
671.53	99.6865
671.65	99.2509
671.77	98.9388
671.89	99.1987
672.01	99.4448
672.13	99.1309
672.26	99.6426
672.38	99.7273
672.50	99.5445
672.62	99.1712
672.74	99.3104
672.86	99.1311
672.98	99.3186
673.11	99.1960
673.23	99.3750
673.35	99.3278
673.47	99.5683
673.59	99.3830
673.71	99.1505
673.83	99.0043
673.96	99.1426
674.08	98.7826
674.20	98.8375
674.32	99.3254
674.44	99.4866
674.56	99.1537
674.68	99.1145
674.80	99.2879
674.93	99.2337
675.05	98.9738
675.17	99.0177
675.29	99.2007
675.41	99.1059
675.53	99.1277
675.65	99.0859
675.77	99.2216
675.90	99.3746
676.02	99.0723
676.14	98.7668
676.26	99.0771
676.38	99.1183
676.50	99.0905
676.62	99.6720
676.74	99.9115
676.87	99.5730
676.99	99.4142
677.11	99.3176
677.23	99.0450
677.35	99.3024
677.47	99.6045
677.59	99.5660
677.71	99.5155
677.83	99.3204
677.96	99.1112
678.08	99.0814
678.20	99.2550
678.32	99.2985
678.44	99.1314
678.56	99.0432
678.68	99.1897
678.80	99.1876
678.93	99.1157
679.05	99.2685
679.17	99.4663
679.29	99.4062
679.41	99.4396
679.53	99.4708
679.65	99.6800
679.77	99.5604
679.89	99.2166
680.01	99.4295
680.14	99.6050
680.26	99.4357
680.38	99.3766
680.50	99.5993
680.62	99.3386
680.74	99.2273
680.86	99.4040
680.98	99.1295
681.10	99.2041
681.22	99.3942
681.35	99.5854
681.47	99.0580
681.59	99.4598
681.71	99.4914
681.83	99.0771
681.95	98.5551
682.07	98.9939
682.19	98.9699
682.31	98.5549
682.43	98.8379
682.56	99.1062
682.68	99.0967
682.80	98.8768
682.92	99.1947
683.04	99.2330
683.16	99.0169
683.28	99.0130
683.40	99.0958
683.52	99.0978
683.64	99.0589
683.76	99.3099
683.89	99.1645
684.01	99.1758
684.13	99.1425
684.25	98.9909
684.37	99.0282
684.49	98.9515
684.61	99.0443
684.73	99.2028
684.85	98.9845
684.97	98.9972
685.09	99.4759
685.21	99.1878
685.34	99.1017
685.46	99.3860
685.58	99.1103
685.70	99.0699
685.82	99.3512
685.94	99.3235
686.06	99.2877
686.18	99.4664
686.30	99.2081
686.42	99.3383
686.54	99.0462
686.66	99.1389
686.79	98.9207
686.91	98.9743
687.03	99.0994
687.15	99.5043
687.27	99.2854
687.39	99.6024
687.51	99.6792
687.63	99.4128
687.75	99.0174
687.87	99.4094
687.99	99.3101
688.11	99.1115
688.23	99.2326
688.35	99.6100
688.48	99.4759
688.60	99.3537
688.72	99.4850
688.84	99.4950
688.96	99.5106
689.08	98.9871
689.20	99.0495
689.32	99.2417
689.44	99.3728
689.56	99.2324
689.68	99.6975
689.80	99.7799
689.92	99.6274
690.04	99.4019
690.16	99.2955
690.28	99.5304
690.41	99.3612
690.53	99.0019
690.65	98.8067
690.77	98.8763
690.89	98.6101
691.01	98.7815
691.13	98.9822
691.25	99.1843
691.37	99.4386
691.49	99.0676
691.61	98.9125
691.73	99.1985
691.85	99.2647
691.97	98.7010
692.09	98.9481
692.21	98.8666
692.33	98.9067
692.45	98.8367
692.57	98.9514
692.70	99.2922
692.82	99.5557
692.94	99.3397
693.06	99.4190
693.18	99.7908
693.30	99.3310
693.42	99.2332
693.54	99.3135
693.66	99.4919
693.78	99.2616
693.90	99.5876
694.02	99.8193
694.14	99.7824
694.26	99.3043
694.38	99.2702
694.50	99.3094
694.62	99.2294
694.74	99.1346
694.86	99.3178
694.98	99.2482
695.10	99.2594
695.22	99.1355
695.34	99.2469
695.46	99.2229
695.58	99.4574
695.71	99.4563
695.83	99.2265
695.95	99.3755
696.07	99.5810
696.19	99.7185
696.31	99.4117
696.43	99.6629
696.55	99.6783
696.67	99.6540
696.79	99.5533
696.91	99.4381
697.03	99.4384
697.15	99.4460
697.27	99.0322
697.39	98.9756
697.51	99.2425
697.63	98.8624
697.75	98.6624
697.87	99.0808
697.99	99.0049
698.11	99.0351
698.23	99.4311
698.35	99.4644
698.47	99.5747
698.59	99.3870
698.71	99.4944
698.83	99.5047
698.95	99.5048
699.07	99.2118
699.19	99.5093
699.31	99.3342
699.43	99.4351
699.55	99.5089
699.67	99.6638
699.79	99.6136
699.91	99.6577
700.03	99.4502
700.15	99.3040
700.27	99.4416
700.39	99.3294
700.51	99.3645
700.63	99.3016
700.75	99.5354
700.87	99.2696
700.99	99.5572
701.11	99.5192
701.24	99.3890
701.36	99.1680
701.48	99.3708
701.60	98.9015
701.72	98.9857
701.84	99.4116
701.96	99.3278
702.08	98.9897
702.20	99.2790
702.32	99.3659
702.44	99.3744
702.56	99.5574
702.68	99.4721
702.80	99.4532
702.92	99.4759
703.04	99.4284
703.16	99.6440
703.28	99.9582
703.40	99.9181
703.52	99.7000
703.64	99.4912
703.76	99.2376
703.88	99.2095
704.00	99.0715
704.12	99.1624
704.24	99.1973
704.36	99.3282
704.48	99.1945
704.60	99.3569
704.72	99.0366
704.84	99.0093
704.96	99.0216
705.07	99.1964
705.19	99.0417
705.31	99.4457
705.43	99.3852
705.55	99.2232
705.67	99.3535
705.79	99.5961
705.91	99.3735
706.03	99.3821
706.15	99.5334
706.27	99.2509
706.39	99.2296
706.51	99.3449
706.63	99.3813
706.75	99.1459
706.87	99.2781
706.99	99.4779
707.11	99.5124
707.23	99.5342
707.35	99.4629
707.47	99.2547
707.59	99.0881
707.71	98.9625
707.83	99.0780
707.95	98.9733
708.07	99.1044
708.19	99.4092
708.31	99.5120
708.43	99.3860
708.55	99.6870
708.67	99.6358
708.79	99.3051
708.91	99.1689
709.03	99.3865
709.15	99.3289
709.27	99.3884
709.39	99.2412
709.51	99.2661
709.63	99.3441
709.75	99.2547
709.87	99.2473
709.99	99.4587
710.11	99.7598
710.23	99.2212
710.35	99.2162
710.47	99.2264
710.58	98.9483
710.70	98.6409
710.82	98.9028
710.94	98.8790
711.06	98.9273
711.18	98.7765
711.30	98.6778
711.42	98.6818
711.54	99.0780
711.66	98.9955
711.78	99.0180
711.90	99.3729
712.02	99.7108
712.14	99.2074
712.26	98.9806
712.38	99.4153
712.50	99.3870
712.62	99.1843
712.74	99.0323
712.86	99.3890
712.98	99.2816
713.10	98.9453
713.22	98.7096
713.34	98.9948
713.45	98.8965
713.57	98.7617
713.69	98.8778
713.81	99.1899
713.93	99.6767
714.05	99.5213
714.17	99.4343
714.29	99.7693
714.41	99.6487
714.53	99.3168
714.65	99.6866
714.77	99.5493
714.89	99.3251
715.01	99.2952
715.13	99.2237
715.25	99.1476
715.37	99.3029
715.49	99.2551
715.61	99.0614
715.72	99.2118
715.84	99.1961
715.96	99.1008
716.08	99.0014
716.20	99.2015
716.32	99.0611
716.44	98.9103
716.56	98.8293
716.68	98.9177
716.80	99.0870
716.92	99.2356
717.04	99.3818
717.16	99.9008
717.28	99.8180
717.40	99.5886
717.52	99.4452
717.63	99.3265
717.75	99.1665
717.87	99.3769
717.99	99.2040
718.11	99.1116
718.23	99.0367
718.35	99.2603
718.47	99.1753
718.59	99.5003
718.71	99.5341
718.83	99.9530
718.95	99.7023
719.07	99.7063
719.19	99.6018
719.30	99.6330
719.42	99.3013
719.54	99.2331
719.66	99.3938
719.78	99.3333
719.90	99.4121
720.02	99.2963
720.14	99.3520
720.26	99.1647
720.38	99.4416
720.50	99.2367
720.62	99.6346
720.74	99.5637
720.85	99.2860
720.97	99.2247
721.09	99.2375
721.21	98.9456
721.33	99.0885
721.45	99.3086
721.57	99.5363
721.69	99.4384
721.81	99.2609
721.93	99.4018
722.05	99.7226
722.16	99.4100
722.28	99.4315
722.40	99.3483
722.52	99.4469
722.64	99.1878
722.76	99.0571
722.88	99.4741
723.00	99.7526
723.12	99.8521
723.24	99.6334
723.36	99.6015
723.47	99.4925
723.59	99.4754
723.71	99.3547
723.83	99.6593
723.95	99.6383
724.07	99.2227
724.19	99.4262
724.31	99.4981
724.43	99.5881
724.55	99.1273
724.66	99.6346
724.78	99.6595
724.90	99.3600
725.02	99.1099
725.14	100.0082
725.26	99.8068
725.38	99.4690
725.50	99.3379
725.62	99.5663
725.74	99.6954
725.85	99.8921
725.97	98.7936
726.09	99.2349
726.21	99.4686
726.33	99.2752
726.45	99.1708
726.57	100.4887
726.69	100.0647
726.81	99.6698
726.92	99.3610
727.04	99.3421
727.16	99.3126
727.28	99.5053
727.40	99.0801
727.52	98.9617
727.64	98.9186
727.76	99.0897
727.88	99.0303
727.99	99.3970
728.11	99.5584
728.23	99.5842
728.35	99.3368
728.47	99.2459
728.59	99.4986
728.71	99.6215
728.83	99.4686
728.94	99.3573
729.06	99.4595
729.18	99.3434
729.30	99.1367
729.42	99.1641
729.54	99.4621
729.66	99.3431
729.78	99.2445
729.90	99.6430
730.01	99.7179
730.13	99.7527
730.25	99.7577
730.37	99.9001
730.49	99.6585
730.61	99.6125
730.73	99.5137
730.84	99.4803
730.96	99.5671
731.08	99.6945
731.20	99.1873
731.32	99.2424
731.44	99.4149
731.56	99.0722
731.68	98.9017
731.79	99.5460
731.91	99.2799
732.03	99.2578
732.15	99.4133
732.27	99.2237
732.39	99.3108
732.51	99.6446
732.62	99.3129
732.74	99.3814
732.86	99.7346
732.98	99.5525
733.10	99.0262
733.22	99.5561
733.34	99.3768
733.45	99.2306
733.57	99.1714
733.69	99.5453
733.81	99.3732
733.93	99.4201
734.05	99.3928
734.17	99.4760
734.28	99.6950
734.40	99.7183
734.52	99.4077
734.64	99.5126
734.76	99.8057
734.88	99.5658
735.00	99.1415
735.11	99.7257
735.23	99.9898
735.35	99.4793
735.47	99.4777
735.59	99.8357
735.71	99.4255
735.83	98.9532
735.94	99.0724
736.06	98.9308
736.18	98.8462
736.30	99.2827
736.42	99.4423
736.54	98.8934
736.65	99.0859
736.77	99.2865
736.89	98.5057
737.01	98.8529
737.13	99.6188
737.25	99.4464
737.36	99.2099
737.48	99.8441
737.60	99.4535
737.72	99.0138
737.84	99.1939
737.96	99.1445
738.08	99.2849
738.19	99.2065
738.31	99.5456
738.43	99.3543
738.55	99.6292
738.67	99.4567
738.79	99.4759
738.90	99.6514
739.02	99.9018
739.14	99.5377
739.26	99.2014
739.38	99.4360
739.50	99.2914
739.61	99.1591
739.73	99.2776
739.85	99.2704
739.97	99.4730
740.09	99.3711
740.20	99.1848
740.32	99.5603
740.44	99.8616
740.56	99.5391
740.68	99.5635
740.80	99.4957
740.91	99.1398
741.03	99.2317
741.15	99.0318
741.27	99.0227
741.39	99.0031
741.51	99.1132
741.62	99.0279
741.74	99.2351
741.86	99.2296
741.98	99.4212
742.10	99.3615
742.21	99.4931
742.33	99.1011
742.45	99.1878
742.57	99.1526
742.69	99.2924
742.80	99.2007
742.92	99.6693
743.04	99.2850
743.16	99.5730
743.28	99.5004
743.40	99.5553
743.51	99.4109
743.63	99.7181
743.75	99.4273
743.87	99.2875
743.99	99.1152
744.10	99.2664
744.22	99.0908
744.34	98.9410
744.46	99.2402
744.58	99.0121
744.69	98.8594
744.81	99.3070
744.93	99.2227
745.05	98.7406
745.17	99.0561
745.28	99.0780
745.40	98.8724
745.52	99.0805
745.64	99.4945
745.76	99.6956
745.87	99.5105
745.99	99.6038
746.11	99.7485
746.23	99.8363
746.35	99.0947
746.46	99.1449
746.58	98.9536
746.70	98.9134
746.82	98.8865
746.94	99.5371
747.05	99.7222
747.17	99.8946
747.29	99.2830
747.41	99.3844
747.53	99.2943
747.64	99.0449
747.76	98.6513
747.88	99.2628
748.00	99.1777
748.12	99.2109
748.23	99.2386
748.35	99.3904
748.47	99.5380
748.59	99.5184
748.70	99.4663
748.82	99.6322
748.94	99.5905
749.06	99.5224
749.18	99.1381
749.29	99.0561
749.41	99.0984
749.53	99.1124
749.65	99.2771
749.76	99.6813
749.88	99.5784
750.00	99.3944
750.12	99.5873
750.24	99.6125
750.35	99.2676
750.47	99.5667
750.59	99.5035
750.71	99.8554
750.82	99.7670
750.94	99.9751
751.06	99.8682
751.18	100.0631
751.30	99.5476
751.41	99.4653
751.53	99.5707
751.65	99.3499
751.77	99.1977
751.88	99.6676
752.00	99.3301
752.12	99.2436
752.24	99.4134
752.35	99.4026
752.47	98.7984
752.59	99.2665
752.71	98.8423
752.83	99.0408
752.94	99.0657
753.06	99.2887
753.18	99.1092
753.30	99.4712
753.41	99.1850
753.53	99.2344
753.65	99.4742
753.77	99.4659
753.88	99.3522
754.00	99.2200
754.12	99.4543
754.24	99.7856
754.35	99.5728
754.47	99.6089
754.59	99.9617
754.71	99.9417
754.82	99.2340
754.94	99.4559
755.06	99.4925
755.18	99.4791
755.29	99.1892
755.41	99.4477
755.53	99.4591
755.65	99.4351
755.76	98.8951
755.88	98.9268
756.00	99.1047
756.12	98.9864
756.23	98.5154
756.35	98.8946
756.47	99.2538
756.59	99.0032
756.70	99.2238
756.82	99.5922
756.94	99.5549
757.06	99.4064
757.17	99.6725
757.29	99.3501
757.41	99.5149
757.53	99.5465
757.64	99.3013
757.76	99.0124
757.88	99.1646
758.00	99.4196
758.11	99.3400
758.23	99.4722
758.35	99.3606
758.47	99.4013
758.58	99.1183
758.70	99.4101
758.82	99.2313
758.94	99.5825
759.05	99.6220
759.17	99.2114
759.29	98.9750
759.40	99.1577
759.52	98.7131
759.64	98.3581
759.76	98.7547
759.87	98.8498
759.99	99.1127
760.11	99.3755
760.23	99.5522
760.34	99.5683
760.46	99.5190
760.58	99.0422
760.70	98.9387
760.81	98.9931
760.93	99.0724
761.05	99.3903
761.16	99.7046
761.28	100.0260
761.40	99.7106
761.52	99.5168
761.63	99.2978
761.75	99.3439
761.87	99.1368
761.98	99.6119
762.10	99.6710
762.22	99.9736
762.34	99.7656
762.45	99.2080
762.57	99.2856
762.69	99.2296
762.81	99.2526
762.92	99.2125
763.04	99.3128
763.16	99.1497
763.27	99.1646
763.39	98.5916
763.51	98.7357
763.63	99.4956
763.74	99.5488
763.86	99.7365
763.98	99.7131
764.09	99.8835
764.21	99.5723
764.33	99.5405
764.44	99.3833
764.56	99.6233
764.68	99.6459
764.80	99.1911
764.91	99.2816
765.03	99.4553
765.15	99.6892
765.26	99.2381
765.38	99.6387
765.50	99.4322
765.62	99.2211
765.73	99.1312
765.85	99.1954
765.97	99.3744
766.08	99.6043
766.20	99.6199
766.32	99.2185
766.43	99.3408
766.55	99.1561
766.67	98.9831
766.79	99.1280
766.90	99.4409
767.02	99.6566
767.14	98.9055
767.25	98.8567
767.37	98.8181
767.49	98.4348
767.60	98.0740
767.72	98.9544
767.84	99.3018
767.95	99.2255
768.07	99.4929
768.19	99.7446
768.31	99.7141
768.42	99.4823
768.54	99.1761
768.66	99.0854
768.77	99.2138
768.89	99.1349
769.01	98.8760
769.12	99.2280
769.24	99.4767
769.36	99.4732
769.47	99.2173
769.59	99.3649
769.71	99.3629
769.82	99.5256
769.94	99.1626
770.06	99.5592
770.17	99.5394
770.29	99.2295
770.41	99.1294
770.53	99.3329
770.64	99.0448
770.76	98.9840
770.88	99.7371
770.99	99.6577
771.11	99.7863
771.23	99.6582
771.34	99.5300
771.46	99.1199
771.58	98.9987
771.69	98.6480
771.81	99.1925
771.93	99.0976
772.04	99.1023
772.16	99.0197
772.28	99.2802
772.39	98.8196
772.51	99.3163
772.63	99.3616
772.74	98.7504
772.86	98.8900
772.98	99.0814
773.09	98.8025
773.21	98.6120
773.33	99.5162
773.44	99.0914
773.56	98.7716
773.68	99.0389
773.79	99.1728
773.91	99.0442
774.03	98.9019
774.14	99.3168
774.26	99.5207
774.38	99.3515
774.49	99.0816
774.61	99.4493
774.73	99.3683
774.84	98.9216
774.96	99.1827
775.08	99.3011
775.19	99.1526
775.31	99.1819
775.43	99.4665
775.54	98.9021
775.66	99.2328
775.77	98.9962
775.89	98.6199
776.01	98.3321
776.12	99.0337
776.24	98.8774
776.36	98.8545
776.47	98.8665
776.59	99.1907
776.71	99.1244
776.82	99.0821
776.94	99.2468
777.06	99.8346
777.17	100.0239
777.29	99.8087
777.41	99.8833
777.52	99.8676
777.64	100.0612
777.75	99.9375
777.87	99.7376
777.99	99.5485
778.10	99.8088
778.22	99.4854
778.34	99.1063
778.45	99.3358
778.57	99.4798
778.69	98.9706
778.80	98.9611
778.92	99.2813
779.04	99.2361
779.15	98.9210
779.27	99.0535
779.38	99.0833
779.50	98.8730
779.62	99.2461
779.73	98.9051
779.85	99.3542
779.97	99.5642
780.08	99.3337
780.20	98.8825
780.31	99.4636
780.43	99.4822
780.55	98.8902
780.66	98.5823
780.78	99.0487
780.90	99.3180
781.01	99.3062
781.13	99.0931
781.25	99.8104
781.36	99.5342
781.48	98.7977
781.59	98.4820
781.71	99.2774
781.83	99.5970
781.94	99.1208
782.06	99.6216
782.18	100.4195
782.29	99.8796
782.41	99.3028
782.52	99.8176
782.64	99.9801
782.76	100.0007
782.87	99.6569
782.99	98.9988
783.10	99.1795
783.22	98.9943
783.34	98.2431
783.45	98.8272
783.57	99.2755
783.69	98.5731
783.80	98.4207
783.92	98.7028
784.03	98.6094
784.15	98.9910
784.27	99.4372
784.38	99.4487
784.50	99.4690
784.61	99.6036
784.73	99.6971
784.85	99.3190
784.96	99.2618
785.08	99.1277
785.19	99.3372
785.31	99.2785
785.43	99.2041
785.54	99.2250
785.66	98.9150
785.77	99.0026
785.89	98.7724
786.01	99.0292
786.12	98.6825
786.24	98.8560
786.35	98.5521
786.47	98.9561
786.59	99.0673
786.70	99.7350
786.82	99.8019
786.93	99.7789
787.05	99.6086
787.17	99.8494
787.28	99.5053
787.40	99.4646
787.51	99.8053
787.63	99.4712
787.75	98.9614
787.86	99.1686
787.98	99.3155
788.09	98.6847
788.21	98.7786
788.33	99.5492
788.44	99.3979
788.56	99.6918
788.67	99.9155
788.79	100.3098
788.91	100.2563
789.02	99.8190
789.14	99.2902
789.25	99.4565
789.37	99.0959
789.48	98.9038
789.60	99.1422
789.72	98.9163
789.83	99.2141
789.95	99.6267
790.06	99.0129
790.18	99.0458
790.30	99.2703
790.41	98.8078
790.53	98.5885
790.64	98.8771
790.76	99.1096
790.87	99.0593
790.99	99.0919
791.11	99.0637
791.22	98.8583
791.34	98.7939
791.45	99.0889
791.57	99.2639
791.68	98.7236
791.80	98.9321
791.92	99.1722
792.03	99.1569
792.15	99.0866
792.26	99.3314
792.38	99.2810
792.49	99.2461
792.61	99.4057
792.73	99.8626
792.84	101.6617
792.96	96.8316
793.07	97.2467
793.19	98.1074
793.30	98.3174
793.42	97.3061
793.54	101.3208
793.65	101.0671
793.77	100.4211
793.88	99.6156
794.00	99.1646
794.11	99.7689
794.23	99.8860
794.34	100.0670
794.46	99.2410
794.58	98.6742
794.69	99.6069
794.81	99.7341
794.92	98.2272
795.04	98.7083
795.15	99.0970
795.27	98.9748
795.39	98.7913
795.50	99.8986
795.62	100.3691
795.73	100.3549
795.85	99.4483
795.96	99.4487
796.08	99.3885
796.19	99.5354
796.31	99.6322
796.42	99.7316
796.54	99.7789
796.66	100.1544
796.77	99.2568
796.89	99.6398
797.00	100.1500
797.12	99.5328
797.23	98.8202
797.35	99.3192
797.46	98.7862
797.58	98.8569
797.69	99.1711
797.81	99.5742
797.93	99.7756
798.04	99.5391
798.16	99.6746
798.27	99.8247
798.39	99.9131
798.50	100.1031
798.62	99.7968
798.73	99.6559
798.85	99.5415
798.96	98.9400
799.08	98.6301
799.19	99.4219
799.31	99.7836
799.43	99.6764
799.54	99.4735
799.66	99.6965
799.77	100.2177
799.89	99.6861
800.00	99.0779
800.12	98.9550
800.23	99.1628
800.35	98.8141
800.46	98.3613
800.58	98.7966
800.69	99.4183
800.81	98.5425
800.92	98.4609
801.04	99.1931
801.16	99.4238
801.27	99.3588
801.39	99.9257
801.50	99.3560
801.62	98.7925
801.73	99.2001
801.85	99.0452
801.96	98.5853
802.08	99.5333
802.19	99.9868
802.31	99.0619
802.42	99.1199
802.54	100.0319
802.65	99.2250
802.77	99.8032
802.88	99.6418
803.00	100.0301
803.11	99.7038
803.23	99.7754
803.34	99.3426
803.46	99.5244
803.57	99.6896
803.69	99.2361
803.80	99.6453
803.92	99.4652
804.03	99.6635
804.15	99.1883
804.26	99.9019
804.38	99.4801
804.50	99.1021
804.61	99.1464
804.73	99.8134
804.84	99.3980
804.96	99.6259
805.07	99.7426
805.19	99.5350
805.30	99.0454
805.42	98.9844
805.53	99.1594
805.65	99.6261
805.76	99.9473
805.88	99.7915
805.99	100.1131
806.11	99.9285
806.22	99.7033
806.34	99.8565
806.45	99.5337
806.57	99.6368
806.68	99.3249
806.80	98.9368
806.91	99.1921
807.03	99.7850
807.14	99.6706
807.26	99.5778
807.37	100.3854
807.49	99.7643
807.60	99.1483
807.72	99.2958
807.83	99.9486
807.95	99.4883
808.06	99.3952
808.17	100.0321
808.29	99.5106
808.40	98.8944
808.52	98.4942
808.63	99.0677
808.75	98.6141
808.86	98.8210
808.98	98.9425
809.09	99.4218
809.21	98.9329
809.32	99.8273
809.44	99.5950
809.55	100.1839
809.67	99.6992
809.78	99.4048
809.90	99.0580
810.01	98.4679
810.13	98.4027
810.24	99.1164
810.36	99.6431
810.47	98.9443
810.59	98.9101
810.70	98.8985
810.82	98.7282
810.93	98.8587
811.05	99.3966
811.16	99.7841
811.27	98.4937
811.39	98.6531
811.50	99.4114
811.62	98.8657
811.73	98.8308
811.85	99.5724
811.96	99.3005
812.08	98.6753
812.19	99.1602
812.31	100.0730
812.42	100.1664
812.54	99.6610
812.65	99.4132
812.77	99.3224
812.88	98.8313
813.00	99.6942
813.11	100.4205
813.22	100.9242
813.34	100.1538
813.45	99.3846
813.57	99.2587
813.68	99.9426
813.80	100.0854
813.91	99.6882
814.03	100.8454
814.14	100.0913
814.26	98.8668
814.37	98.6784
814.49	99.7926
814.60	98.9176
814.71	99.3802
814.83	99.4946
814.94	98.6494
815.06	99.1406
815.17	100.3552
815.29	98.5903
815.40	98.8248
815.52	99.8042
815.63	98.9827
815.75	99.1222
815.86	100.5531
815.97	100.0213
816.09	99.2472
816.20	101.0378
816.32	100.0394
816.43	100.4901
816.55	99.5059
816.66	100.2988
816.78	99.1380
816.89	99.9548
817.00	100.2874
817.12	100.7464
817.23	100.1939
817.35	101.1014
817.46	98.9914
817.58	98.7287
817.69	99.6952
817.81	99.5330
817.92	98.1387
818.03	100.2327
818.15	100.2354
818.26	100.0050
818.38	106.0127
818.49	114.1168
818.61	96.4719
818.72	100.1188
818.83	109.1704
818.95	104.9199
819.06	95.9137
819.18	114.6291
819.29	110.3187
819.41	100.8776
819.52	99.1944
819.64	100.9942
819.75	100.6484
819.86	98.9591
819.98	99.1543
820.09	100.1467
820.21	98.0438
820.32	96.2162
820.44	99.4359
820.55	99.5142
820.66	98.9553
820.78	99.7466
820.89	102.0086
821.01	100.3796
821.12	102.1051
821.23	99.2307
821.35	98.6724
821.46	99.8584
821.58	100.9138
821.69	97.5060
821.81	98.9761
821.92	98.0862
822.03	98.4833
822.15	98.4158
822.26	98.6573
822.38	99.1292
822.49	100.5376
822.61	97.8470
822.72	97.3378
822.83	100.8653
822.95	99.9636
823.06	97.9126
823.18	98.1848
823.29	99.2699
823.40	101.4721
823.52	97.7202
823.63	100.6001
823.75	105.6626
823.86	101.2924
823.97	99.7072
824.09	104.7740
824.20	105.6639
824.32	100.9997
824.43	99.2677
824.55	99.2524
824.66	100.7685
824.77	96.0547
824.89	96.8269
825.00	99.7458
825.12	98.9010
825.23	100.3100
825.34	98.9931
825.46	98.6066
825.57	105.3363
825.69	103.1781
825.80	103.1324
825.91	104.9867
826.03	107.7619
826.14	100.7200
826.26	100.1161
826.37	95.2108
826.48	101.9055
826.60	96.8693
826.71	97.2426
826.83	89.8222
826.94	88.1202
827.05	88.1829
827.17	92.3307
827.28	97.4647
827.39	103.7532
827.51	107.6010
827.62	104.9348
827.74	109.7500
827.85	106.8388
827.96	87.8341
828.08	97.3264
828.19	127.8861
828.31	109.2298
828.42	95.2079
828.53	111.9440
828.65	20.1192
828.76	0.0000
828.87	0.0000
828.99	0.0000
