Wavelength (nm)	Reflectance (%)
377.35	0.0000
377.48	0.0000
377.62	0.0000
377.75	35.4043
377.88	0.0000
378.02	150.9524
378.15	200.0000
378.28	200.0000
378.41	200.0000
378.55	150.7059
378.68	0.0000
378.81	200.0000
378.95	200.0000
379.08	200.0000
379.21	200.0000
379.35	81.5484
379.48	131.0233
379.61	132.8000
379.74	71.9684
379.88	0.0000
380.01	24.1031
380.14	52.7107
380.28	5.7442
380.41	0.0000
380.54	80.8337
380.68	78.0035
380.81	30.5479
380.94	14.1595
381.07	45.1603
381.21	53.3716
381.34	0.0000
381.47	16.5932
381.61	83.2753
381.74	64.6594
381.87	0.0000
382.00	54.6394
382.14	79.4455
382.27	11.8158
382.40	0.0000
382.54	42.0096
382.67	50.1912
382.80	14.7488
382.93	39.8246
383.07	51.2054
383.20	45.4740
383.33	68.0820
383.47	26.4472
383.60	22.0185
383.73	48.0123
383.86	42.9254
384.00	0.0000
384.13	36.5617
384.26	47.3262
384.40	19.5616
384.53	7.0543
384.66	27.1473
384.79	47.1181
384.93	40.5737
385.06	19.8426
385.19	23.3477
385.33	26.7260
385.46	4.5229
385.59	15.4610
385.72	51.6850
385.86	42.4074
385.99	41.4258
386.12	41.9037
386.25	12.9438
386.39	18.2660
386.52	33.6623
386.65	25.1922
386.79	4.0575
386.92	38.9321
387.05	48.7800
387.18	25.6918
387.32	19.7263
387.45	59.6598
387.58	49.6406
387.71	30.9382
387.85	35.8773
387.98	35.1057
388.11	35.5739
388.25	22.3495
388.38	12.8505
388.51	23.5387
388.64	46.1047
388.78	46.1979
388.91	20.5134
389.04	43.0786
389.17	38.5684
389.31	5.4521
389.44	0.0000
389.57	35.4683
389.70	33.8087
389.84	40.8501
389.97	43.6838
390.10	48.9041
390.24	50.9365
390.37	28.1515
390.50	24.1145
390.63	29.0950
390.77	21.3829
390.90	22.7968
391.03	40.3333
391.16	33.1506
391.30	37.0088
391.43	52.0388
391.56	30.0043
391.69	32.6403
391.83	49.7253
391.96	26.3323
392.09	15.5446
392.22	45.0314
392.36	46.7012
392.49	16.4377
392.62	19.3188
392.75	28.6376
392.89	20.3137
393.02	24.7079
393.15	12.2724
393.28	36.2371
393.42	26.7259
393.55	28.2692
393.68	17.6948
393.81	42.4935
393.95	41.4426
394.08	37.1714
394.21	27.1356
394.34	25.1109
394.48	27.2945
394.61	17.4572
394.74	24.2292
394.87	23.6277
395.01	43.3566
395.14	29.1581
395.27	17.7869
395.40	27.2518
395.54	34.3049
395.67	11.6798
395.80	26.0993
395.93	41.8014
396.07	40.6595
396.20	36.2234
396.33	39.3607
396.46	41.3780
396.59	47.4783
396.73	29.9273
396.86	28.5009
396.99	46.2470
397.12	62.2791
397.26	13.8536
397.39	19.9000
397.52	39.3679
397.65	32.0673
397.79	2.0034
397.92	45.5387
398.05	55.5101
398.18	31.4324
398.32	20.2617
398.45	27.6504
398.58	34.3686
398.71	27.9576
398.84	27.6232
398.98	28.2846
399.11	34.6615
399.24	30.0794
399.37	30.5125
399.51	36.1292
399.64	37.5805
399.77	35.0193
399.90	39.9719
400.03	29.9172
400.17	24.1153
400.30	26.6770
400.43	27.1655
400.56	20.6495
400.70	36.0589
400.83	41.8363
400.96	42.0386
401.09	34.5093
401.23	35.6512
401.36	28.9708
401.49	28.4594
401.62	31.6289
401.75	40.5565
401.89	34.9261
402.02	34.2648
402.15	35.3221
402.28	37.2449
402.41	39.7866
402.55	31.3930
402.68	29.0158
402.81	35.6927
402.94	38.5449
403.08	30.2568
403.21	36.1774
403.34	47.3364
403.47	38.7670
403.60	27.8048
403.74	35.9295
403.87	39.7633
404.00	38.5370
404.13	45.3138
404.26	43.7769
404.40	39.5911
404.53	45.6308
404.66	33.0800
404.79	27.7923
404.93	42.3199
405.06	41.1068
405.19	31.9649
405.32	36.1182
405.45	43.8163
405.59	45.6511
405.72	23.8927
405.85	34.6159
405.98	45.8141
406.11	40.3403
406.25	24.5559
406.38	46.2951
406.51	44.2533
406.64	40.5076
406.77	36.2270
406.91	43.9430
407.04	45.8657
407.17	44.5714
407.30	32.9983
407.43	31.8544
407.57	37.7379
407.70	39.3688
407.83	41.9680
407.96	39.2864
408.09	49.9895
408.23	51.7735
408.36	35.8301
408.49	31.3268
408.62	50.3531
408.75	44.8516
408.89	39.7542
409.02	46.6563
409.15	46.7867
409.28	50.0940
409.41	38.3983
409.55	38.0651
409.68	53.3853
409.81	51.3199
409.94	42.0422
410.07	59.3438
410.20	60.2389
410.34	52.9027
410.47	51.6052
410.60	56.9317
410.73	52.4224
410.86	55.0081
411.00	55.8035
411.13	59.6587
411.26	52.9225
411.39	54.4893
411.52	51.9825
411.66	54.8816
411.79	53.3650
411.92	58.6454
412.05	58.8859
412.18	54.6549
412.31	49.5254
412.45	60.6024
412.58	60.6911
412.71	54.1474
412.84	63.3682
412.97	70.7272
413.11	62.3012
413.24	52.0870
413.37	63.0524
413.50	64.8418
413.63	58.2634
413.76	58.1202
413.90	70.5552
414.03	68.2698
414.16	65.7651
414.29	59.8325
414.42	66.3527
414.56	65.2493
414.69	66.0913
414.82	63.4889
414.95	72.2243
415.08	65.4539
415.21	74.2647
415.35	70.2355
415.48	66.4975
415.61	77.8810
415.74	83.3310
415.87	62.0317
416.00	68.3789
416.14	80.6978
416.27	72.9798
416.40	69.3537
416.53	82.8459
416.66	86.6264
416.79	78.2766
416.93	77.5085
417.06	80.6883
417.19	82.6556
417.32	84.1699
417.45	80.3467
417.58	81.8807
417.72	82.5559
417.85	77.0142
417.98	75.6598
418.11	84.1679
418.24	83.6691
418.37	84.1217
418.51	81.4972
418.64	77.9784
418.77	82.7338
418.90	82.8308
419.03	76.7111
419.16	88.2970
419.29	96.1696
419.43	79.7871
419.56	78.9823
419.69	90.2146
419.82	88.0348
419.95	82.0194
420.08	86.1659
420.22	86.3631
420.35	83.1634
420.48	88.4088
420.61	84.0652
420.74	95.1362
420.87	101.2125
421.00	98.3025
421.14	88.0342
421.27	93.2285
421.40	92.0981
421.53	90.2232
421.66	92.8629
421.79	97.2273
421.93	101.5701
422.06	97.7323
422.19	95.5841
422.32	97.1487
422.45	101.8178
422.58	95.1201
422.71	92.9086
422.85	97.8014
422.98	99.3481
423.11	97.0635
423.24	99.5567
423.37	101.7681
423.50	99.5138
423.63	98.9619
423.77	96.6116
423.90	93.0754
424.03	95.0185
424.16	98.4008
424.29	98.5901
424.42	102.0134
424.55	103.7640
424.69	103.5854
424.82	104.4966
424.95	99.3831
425.08	97.8408
425.21	99.7215
425.34	98.2171
425.47	96.4943
425.60	100.1783
425.74	99.6181
425.87	98.0587
426.00	101.2025
426.13	100.7127
426.26	100.9219
426.39	96.9421
426.52	99.9227
426.66	104.3493
426.79	95.9987
426.92	92.7528
427.05	99.8153
427.18	100.6518
427.31	97.0975
427.44	101.9904
427.57	107.5165
427.71	104.8941
427.84	98.3518
427.97	95.5644
428.10	101.3342
428.23	106.8832
428.36	100.0447
428.49	99.4170
428.62	103.1598
428.76	105.1324
428.89	97.7165
429.02	98.3835
429.15	105.0842
429.28	104.4071
429.41	100.2386
429.54	97.3903
429.67	104.3356
429.81	106.2895
429.94	101.4397
430.07	94.9580
430.20	99.6583
430.33	100.5703
430.46	98.0283
430.59	104.1269
430.72	108.4040
430.85	108.9462
430.99	104.7541
431.12	100.9050
431.25	101.3816
431.38	105.1551
431.51	98.4889
431.64	98.9197
431.77	104.1201
431.90	105.0985
432.03	101.8217
432.17	104.4006
432.30	107.9811
432.43	105.7778
432.56	101.9824
432.69	99.2125
432.82	101.3433
432.95	100.3682
433.08	101.2114
433.21	101.4447
433.35	106.2793
433.48	105.0284
433.61	106.1626
433.74	103.4123
433.87	106.0617
434.00	104.5628
434.13	104.3621
434.26	101.7999
434.39	105.8580
434.53	104.4764
434.66	106.2988
434.79	102.2371
434.92	106.3205
435.05	106.0353
435.18	100.8142
435.31	98.6434
435.44	104.2920
435.57	105.4921
435.70	102.5861
435.84	100.2732
435.97	102.6777
436.10	103.7881
436.23	99.4728
436.36	99.4326
436.49	105.6257
436.62	102.2530
436.75	99.5787
436.88	99.8558
437.01	103.4886
437.14	103.4283
437.28	100.3431
437.41	98.2636
437.54	101.7108
437.67	104.2921
437.80	96.6263
437.93	97.8933
438.06	104.5980
438.19	103.9097
438.32	98.5363
438.45	102.3221
438.58	104.5498
438.72	103.0800
438.85	100.8818
438.98	100.1436
439.11	102.6795
439.24	103.0991
439.37	99.1625
439.50	101.3630
439.63	104.9770
439.76	106.7430
439.89	106.6006
440.02	105.2827
440.15	104.5866
440.29	105.8600
440.42	103.1644
440.55	99.5385
440.68	105.5088
440.81	106.7551
440.94	99.7055
441.07	100.2351
441.20	105.3901
441.33	102.2684
441.46	99.5989
441.59	103.9518
441.72	105.3532
441.85	103.5485
441.99	100.6165
442.12	99.8296
442.25	99.5460
442.38	101.3193
442.51	100.7929
442.64	102.6014
442.77	104.3090
442.90	105.1283
443.03	102.6992
443.16	99.9941
443.29	101.6615
443.42	99.9337
443.55	99.7552
443.68	99.9896
443.82	103.7982
443.95	101.2090
444.08	102.2616
444.21	100.7004
444.34	100.4548
444.47	99.8289
444.60	102.3799
444.73	99.9389
444.86	100.6153
444.99	101.6860
445.12	103.1897
445.25	100.9603
445.38	102.1447
445.51	104.0722
445.64	107.2493
445.78	100.6913
445.91	99.5721
446.04	103.9519
446.17	100.5965
446.30	95.4555
446.43	101.9989
446.56	104.9522
446.69	99.4669
446.82	98.5007
446.95	100.5886
447.08	101.2799
447.21	99.1154
447.34	99.8628
447.47	102.2761
447.60	99.7114
447.73	98.3357
447.86	99.8495
447.99	100.1331
448.13	101.4409
448.26	101.9798
448.39	100.0328
448.52	100.9623
448.65	101.5899
448.78	98.5010
448.91	100.7410
449.04	100.6205
449.17	99.0270
449.30	99.8787
449.43	98.4204
449.56	96.9191
449.69	100.9237
449.82	99.5848
449.95	97.2168
450.08	100.2712
450.21	101.1271
450.34	97.4924
450.47	99.6821
450.60	102.2864
450.73	103.4143
450.87	102.0204
451.00	97.0872
451.13	97.9003
451.26	96.0575
451.39	94.3084
451.52	94.5416
451.65	100.2374
451.78	101.0042
451.91	98.7743
452.04	96.5377
452.17	99.0051
452.30	99.5943
452.43	95.3852
452.56	99.7350
452.69	99.1115
452.82	96.7418
452.95	97.4142
453.08	96.5741
453.21	95.9266
453.34	98.2964
453.47	95.3547
453.60	93.3378
453.73	95.9855
453.86	94.1506
453.99	94.6127
454.12	96.8253
454.25	98.2852
454.38	97.5140
454.52	98.0924
454.65	98.5899
454.78	98.0504
454.91	96.8952
455.04	98.0683
455.17	94.8822
455.30	94.6759
455.43	97.2965
455.56	95.7153
455.69	93.3871
455.82	97.0491
455.95	96.2306
456.08	94.7842
456.21	96.3927
456.34	96.8260
456.47	96.2770
456.60	96.3952
456.73	94.3654
456.86	94.1914
456.99	95.1696
457.12	92.8595
457.25	91.6830
457.38	92.5345
457.51	92.4494
457.64	92.0482
457.77	93.8249
457.90	94.5514
458.03	94.9199
458.16	94.1482
458.29	94.9374
458.42	95.4959
458.55	96.1874
458.68	94.2885
458.81	90.9289
458.94	92.2830
459.07	93.4463
459.20	92.0134
459.33	91.1257
459.46	94.3804
459.59	94.4936
459.72	91.1960
459.85	91.1038
459.98	94.3111
460.11	96.1811
460.24	92.5510
460.37	93.7244
460.50	95.4043
460.63	95.1265
460.76	92.1583
460.89	93.1983
461.02	94.7872
461.15	94.5357
461.28	91.9415
461.41	94.5120
461.54	95.4166
461.67	93.3064
461.80	93.0007
461.93	93.8651
462.06	93.0089
462.19	93.6658
462.32	92.7588
462.45	92.6204
462.58	93.2357
462.71	93.6604
462.84	91.7955
462.97	92.2673
463.10	91.0099
463.23	91.1692
463.36	91.7584
463.49	91.9146
463.62	92.6437
463.75	93.8188
463.88	95.7931
464.01	91.8008
464.14	92.9122
464.27	94.1818
464.40	93.1751
464.53	91.3466
464.66	92.8901
464.79	93.1123
464.92	91.9380
465.05	92.1764
465.18	92.1755
465.31	93.6575
465.44	93.3959
465.57	90.6208
465.70	91.3714
465.83	93.2816
465.96	91.7480
466.09	90.7475
466.22	94.2854
466.35	94.5540
466.48	93.0316
466.61	93.1407
466.74	92.7318
466.87	91.7376
467.00	90.3108
467.13	91.2664
467.26	93.0575
467.39	93.9265
467.52	92.3207
467.65	93.4377
467.78	92.2576
467.91	90.9325
468.04	90.8609
468.17	93.3818
468.30	93.4894
468.43	92.9821
468.56	92.2339
468.69	93.4015
468.82	92.8401
468.95	92.7726
469.08	93.9053
469.21	93.4335
469.34	91.4298
469.47	92.4828
469.60	92.3861
469.73	91.1835
469.86	93.9844
469.99	95.1725
470.11	92.9799
470.24	92.5574
470.37	93.8180
470.50	93.1131
470.63	91.9496
470.76	91.2483
470.89	92.6827
471.02	92.8492
471.15	90.2817
471.28	89.7784
471.41	91.7940
471.54	91.8624
471.67	89.7372
471.80	90.8608
471.93	92.4095
472.06	93.2219
472.19	90.1893
472.32	90.5655
472.45	91.3138
472.58	90.8723
472.71	89.8801
472.84	92.0578
472.97	91.7360
473.10	92.4198
473.23	91.2341
473.36	90.5428
473.49	89.9364
473.62	90.3689
473.74	89.9713
473.87	91.9044
474.00	92.0215
474.13	91.5480
474.26	92.1490
474.39	91.6954
474.52	90.1094
474.65	91.2667
474.78	92.0087
474.91	90.0723
475.04	89.8547
475.17	90.7683
475.30	89.3293
475.43	89.1543
475.56	90.8121
475.69	91.7314
475.82	90.6900
475.95	91.5825
476.08	91.6376
476.21	91.5446
476.34	89.8764
476.46	90.9962
476.59	90.7208
476.72	91.0776
476.85	89.9048
476.98	90.1019
477.11	90.4524
477.24	89.9271
477.37	88.7524
477.50	90.0025
477.63	90.7107
477.76	90.2089
477.89	89.9928
478.02	90.2092
478.15	90.1080
478.28	90.4395
478.41	89.2621
478.54	89.8956
478.66	90.2461
478.79	90.2386
478.92	89.5164
479.05	90.4062
479.18	89.7653
479.31	89.9005
479.44	89.7176
479.57	89.6720
479.70	90.2842
479.83	90.9431
479.96	89.1505
480.09	88.5863
480.22	88.8553
480.35	88.2129
480.48	88.0469
480.60	88.7856
480.73	89.3742
480.86	89.4577
480.99	89.2161
481.12	88.2171
481.25	89.4425
481.38	89.5174
481.51	88.6969
481.64	88.7386
481.77	89.6066
481.90	89.1134
482.03	88.1202
482.16	88.6830
482.29	88.7216
482.41	89.0612
482.54	89.0824
482.67	89.5845
482.80	90.1117
482.93	89.6139
483.06	88.9780
483.19	89.2428
483.32	89.6972
483.45	88.8433
483.58	88.6273
483.71	88.3496
483.84	87.7787
483.97	87.3671
484.09	87.4046
484.22	88.1577
484.35	88.4163
484.48	88.3035
484.61	88.3571
484.74	88.7090
484.87	88.3053
485.00	88.6397
485.13	88.6989
485.26	89.1671
485.39	88.3309
485.52	88.2007
485.64	87.6346
485.77	88.2235
485.90	87.8360
486.03	88.7684
486.16	88.7917
486.29	88.8175
486.42	88.5365
486.55	88.0730
486.68	87.4988
486.81	87.9885
486.94	87.8469
487.06	87.1851
487.19	87.4547
487.32	87.6987
487.45	87.2020
487.58	87.7534
487.71	87.9086
487.84	87.5615
487.97	87.4452
488.10	87.9515
488.23	87.3054
488.35	87.7442
488.48	88.2414
488.61	88.3583
488.74	87.9850
488.87	87.5788
489.00	87.3722
489.13	87.4269
489.26	87.2736
489.39	87.1416
489.52	87.7557
489.64	87.5172
489.77	87.2579
489.90	86.9831
490.03	87.1212
490.16	87.3161
490.29	87.0248
490.42	87.3272
490.55	87.4594
490.68	87.9730
490.81	87.2183
490.93	87.5914
491.06	87.4446
491.19	87.2073
491.32	86.9810
491.45	87.4789
491.58	87.6684
491.71	87.9512
491.84	87.6794
491.97	87.2911
492.09	87.6423
492.22	87.2216
492.35	86.9465
492.48	87.6876
492.61	87.4852
492.74	87.1533
492.87	87.5735
493.00	87.1832
493.12	86.8306
493.25	87.2199
493.38	87.5255
493.51	86.9851
493.64	86.9939
493.77	87.0329
493.90	86.4325
494.03	85.9120
494.16	86.4248
494.28	86.9558
494.41	86.3362
494.54	86.4210
494.67	87.0780
494.80	86.7576
494.93	86.4123
495.06	87.1539
495.19	87.7057
495.31	87.5180
495.44	87.3559
495.57	87.5144
495.70	87.7869
495.83	87.7194
495.96	86.8943
496.09	86.6506
496.22	87.0692
496.34	86.6860
496.47	85.9796
496.60	86.0955
496.73	86.7469
496.86	85.8909
496.99	86.0580
497.12	86.3797
497.24	86.4558
497.37	86.2869
497.50	86.7138
497.63	85.9566
497.76	85.6697
497.89	86.6785
498.02	86.7581
498.15	86.4489
498.27	86.7302
498.40	87.1356
498.53	86.3941
498.66	86.6961
498.79	86.7111
498.92	86.8168
499.05	86.8840
499.17	86.2860
499.30	85.8120
499.43	86.3740
499.56	86.2824
499.69	86.1629
499.82	86.9138
499.95	87.1425
500.07	86.7188
500.20	86.0133
500.33	86.0138
500.46	86.1137
500.59	85.7851
500.72	85.4407
500.85	85.9852
500.97	86.4675
501.10	86.3657
501.23	85.9262
501.36	86.0425
501.49	86.4645
501.62	85.5198
501.75	85.6487
501.87	85.9628
502.00	85.8676
502.13	85.8261
502.26	86.1583
502.39	86.0833
502.52	86.1467
502.64	85.8753
502.77	85.7003
502.90	86.0694
503.03	85.9659
503.16	85.5551
503.29	85.9377
503.42	86.1373
503.54	85.9966
503.67	85.3720
503.80	86.3245
503.93	86.5310
504.06	85.9621
504.19	85.8754
504.31	86.1560
504.44	85.5995
504.57	85.7885
504.70	85.9764
504.83	85.9517
504.96	86.1073
505.08	85.5257
505.21	85.0700
505.34	85.3582
505.47	85.3640
505.60	85.4689
505.73	85.4885
505.85	85.9123
505.98	86.2108
506.11	86.2645
506.24	86.1052
506.37	86.3137
506.50	86.1328
506.62	85.7614
506.75	85.2830
506.88	85.5074
507.01	85.6893
507.14	85.5341
507.27	85.4617
507.39	85.8600
507.52	85.2398
507.65	85.5892
507.78	85.3447
507.91	85.1245
508.04	84.9084
508.16	85.2416
508.29	85.3985
508.42	85.8186
508.55	85.4576
508.68	85.6618
508.81	85.8291
508.93	85.3548
509.06	85.0475
509.19	85.6509
509.32	85.3401
509.45	85.2981
509.57	85.2966
509.70	85.4219
509.83	85.2740
509.96	85.4712
510.09	85.4347
510.22	85.7126
510.34	85.2782
510.47	85.4001
510.60	85.3313
510.73	85.2323
510.86	85.1404
510.98	85.3108
511.11	85.1074
511.24	85.2910
511.37	85.3122
511.50	85.1513
511.63	85.3335
511.75	85.3082
511.88	85.1185
512.01	84.9685
512.14	84.9769
512.27	84.8872
512.39	84.8037
512.52	84.8370
512.65	84.9551
512.78	84.8005
512.91	84.6924
513.03	84.6775
513.16	84.7311
513.29	84.6003
513.42	84.4321
513.55	84.8334
513.67	85.1683
513.80	84.9384
513.93	84.7932
514.06	85.1359
514.19	84.6883
514.31	84.7187
514.44	84.7190
514.57	84.5180
514.70	84.6698
514.83	84.9848
514.95	84.6723
515.08	84.6764
515.21	84.9810
515.34	84.9625
515.47	84.7036
515.59	84.7223
515.72	84.3932
515.85	84.5431
515.98	84.2206
516.11	84.1234
516.23	84.3382
516.36	84.9669
516.49	84.6903
516.62	84.5619
516.75	85.2184
516.87	85.1315
517.00	84.4513
517.13	84.6059
517.26	85.3216
517.39	84.7368
517.51	84.1611
517.64	84.7680
517.77	84.6186
517.90	84.1627
518.02	84.4958
518.15	84.7378
518.28	84.3411
518.41	84.2469
518.54	84.1851
518.66	84.0982
518.79	84.2836
518.92	84.2967
519.05	84.1243
519.18	84.1365
519.30	83.9286
519.43	83.8836
519.56	83.6621
519.69	84.0661
519.81	84.2327
519.94	84.1954
520.07	84.1199
520.20	84.2961
520.33	84.2975
520.45	84.1025
520.58	83.9443
520.71	83.9782
520.84	84.2522
520.96	84.2856
521.09	84.0278
521.22	84.0345
521.35	84.2891
521.48	84.2573
521.60	83.9822
521.73	83.6574
521.86	83.9174
521.99	83.8969
522.11	83.6289
522.24	83.8817
522.37	84.0436
522.50	84.3386
522.62	84.1518
522.75	84.3797
522.88	84.1529
523.01	84.3104
523.14	83.6460
523.26	83.9179
523.39	83.4996
523.52	83.6024
523.65	83.8335
523.77	84.0759
523.90	83.7261
524.03	84.0030
524.16	84.0322
524.28	83.8927
524.41	84.1550
524.54	84.2587
524.67	84.0084
524.79	83.6305
524.92	83.8866
525.05	83.4681
525.18	83.6308
525.31	83.1826
525.43	83.6525
525.56	83.9553
525.69	83.9374
525.82	83.5390
525.94	84.2910
526.07	84.2754
526.20	83.5022
526.33	83.5208
526.45	83.7588
526.58	83.8178
526.71	83.5166
526.84	83.9014
526.96	83.8898
527.09	83.8557
527.22	83.9421
527.35	83.6805
527.47	83.7568
527.60	83.7356
527.73	83.5204
527.86	83.2562
527.98	83.7406
528.11	83.3033
528.24	83.5849
528.37	83.6196
528.49	83.2854
528.62	83.5488
528.75	83.8180
528.88	83.5939
529.00	83.8486
529.13	84.2540
529.26	83.4586
529.39	83.1803
529.51	83.5290
529.64	83.4681
529.77	83.2160
529.90	83.6009
530.02	84.0205
530.15	83.7553
530.28	83.6130
530.40	83.6456
530.53	83.7786
530.66	83.2909
530.79	83.3035
530.91	83.2556
531.04	83.3485
531.17	83.1417
531.30	83.4020
531.42	82.8902
531.55	83.1427
531.68	83.3019
531.81	83.3163
531.93	83.4972
532.06	83.8678
532.19	83.5489
532.31	83.2603
532.44	83.5278
532.57	83.3909
532.70	83.3153
532.82	83.2080
532.95	83.1295
533.08	82.9987
533.21	83.0522
533.33	83.1643
533.46	82.8352
533.59	83.1404
533.71	83.2318
533.84	83.2236
533.97	83.2442
534.10	83.7079
534.22	83.6171
534.35	83.1871
534.48	83.1393
534.61	83.1870
534.73	83.0663
534.86	82.8138
534.99	83.0876
535.11	83.1000
535.24	83.1856
535.37	83.4918
535.50	83.4820
535.62	83.2642
535.75	83.2313
535.88	82.9810
536.00	82.6913
536.13	82.8977
536.26	83.2367
536.39	82.9627
536.51	83.1203
536.64	83.3213
536.77	83.1992
536.89	82.8700
537.02	83.0683
537.15	82.8623
537.28	82.8793
537.40	82.6804
537.53	82.6800
537.66	82.7857
537.78	83.0166
537.91	82.9439
538.04	83.5155
538.17	83.3926
538.29	82.9776
538.42	82.8564
538.55	83.0350
538.67	82.7381
538.80	83.2142
538.93	83.2678
539.05	83.1115
539.18	82.8242
539.31	83.0620
539.44	82.7007
539.56	82.8861
539.69	83.2079
539.82	83.3521
539.94	82.6651
540.07	82.7146
540.20	82.6978
540.32	82.3426
540.45	81.9284
540.58	82.5669
540.71	82.8260
540.83	82.9456
540.96	82.8042
541.09	82.8853
541.21	82.9603
541.34	82.9162
541.47	82.7420
541.59	82.6427
541.72	82.8766
541.85	82.9345
541.98	82.7890
542.10	82.3304
542.23	82.6368
542.36	82.6651
542.48	82.4598
542.61	82.3071
542.74	82.8185
542.86	82.9519
542.99	82.7550
543.12	82.7170
543.24	82.6735
543.37	82.6419
543.50	82.4819
543.62	82.7436
543.75	82.7006
543.88	82.6499
544.01	82.4735
544.13	82.5600
544.26	82.3959
544.39	82.2499
544.51	82.2550
544.64	82.4709
544.77	82.2345
544.89	82.3410
545.02	82.1317
545.15	81.8944
545.27	81.8194
545.40	81.8457
545.53	81.9144
545.65	82.3674
545.78	82.7043
545.91	82.5405
546.03	82.7647
546.16	82.6249
546.29	82.3589
546.41	82.5209
546.54	82.4906
546.67	82.1604
546.79	82.3904
546.92	82.4064
547.05	82.2918
547.17	82.3937
547.30	82.7420
547.43	82.4077
547.56	82.5085
547.68	82.4217
547.81	82.4635
547.94	82.4611
548.06	82.3224
548.19	82.3940
548.32	82.6102
548.44	82.5411
548.57	82.1834
548.70	82.3338
548.82	82.2812
548.95	82.2788
549.08	81.9657
549.20	82.1541
549.33	82.2580
549.45	82.3993
549.58	82.0725
549.71	82.6607
549.83	82.6061
549.96	82.4344
550.09	82.0634
550.21	82.2843
550.34	82.0336
550.47	82.3914
550.59	82.4088
550.72	82.1549
550.85	82.2024
550.97	82.4036
551.10	81.9476
551.23	81.9800
551.35	82.5298
551.48	82.6298
551.61	82.2687
551.73	82.3457
551.86	82.4724
551.99	82.1062
552.11	81.8130
552.24	82.1371
552.37	82.2575
552.49	82.1062
552.62	82.2763
552.75	82.3974
552.87	82.1720
553.00	82.1125
553.12	81.9860
553.25	81.7268
553.38	81.5585
553.50	81.7494
553.63	81.6110
553.76	81.7459
553.88	82.0593
554.01	82.0674
554.14	81.7530
554.26	82.0558
554.39	82.0684
554.52	82.0963
554.64	82.1326
554.77	82.2395
554.89	82.0361
555.02	82.0611
555.15	81.9273
555.27	81.6531
555.40	81.7635
555.53	81.9069
555.65	81.6216
555.78	81.3557
555.91	81.7776
556.03	81.8468
556.16	81.5643
556.29	81.5075
556.41	81.9082
556.54	81.8299
556.66	81.2818
556.79	81.3186
556.92	81.7515
557.04	81.5216
557.17	81.3472
557.30	81.6858
557.42	81.5639
557.55	81.3457
557.67	81.2534
557.80	81.1878
557.93	81.3926
558.05	81.4974
558.18	81.3112
558.31	81.2233
558.43	81.3180
558.56	81.2936
558.68	81.3057
558.81	81.1815
558.94	81.5294
559.06	81.6037
559.19	81.5007
559.32	81.4229
559.44	81.6668
559.57	81.4903
559.69	81.2219
559.82	81.0922
559.95	81.3573
560.07	81.3414
560.20	81.1230
560.33	81.3841
560.45	81.0984
560.58	80.9764
560.70	80.9892
560.83	81.0903
560.96	80.7702
561.08	81.2135
561.21	81.3817
561.33	81.0943
561.46	81.2225
561.59	81.4713
561.71	81.4140
561.84	81.0989
561.97	81.5191
562.09	81.5373
562.22	81.3299
562.34	81.2475
562.47	81.3638
562.60	81.2670
562.72	81.0813
562.85	81.2151
562.97	81.2198
563.10	81.2048
563.23	81.0399
563.35	81.0411
563.48	80.8643
563.60	80.9988
563.73	81.0164
563.86	81.0965
563.98	81.2589
564.11	81.1921
564.23	81.0531
564.36	80.8485
564.49	80.9114
564.61	80.9206
564.74	80.9607
564.86	80.8929
564.99	80.8874
565.12	80.9088
565.24	80.8178
565.37	80.8542
565.49	80.9206
565.62	81.2959
565.75	80.7460
565.87	80.6587
566.00	81.0419
566.12	80.8389
566.25	80.6775
566.38	80.9791
566.50	80.9758
566.63	80.7421
566.75	80.9389
566.88	80.7909
567.01	80.9396
567.13	81.1500
567.26	80.9319
567.38	80.9532
567.51	80.9168
567.64	80.8016
567.76	80.7011
567.89	80.9514
568.01	80.7762
568.14	80.7983
568.26	80.9161
568.39	80.8063
568.52	80.7390
568.64	80.8344
568.77	80.8292
568.89	80.8725
569.02	80.9768
569.15	80.8569
569.27	80.6838
569.40	80.7246
569.52	80.7290
569.65	80.7926
569.77	80.9917
569.90	80.8694
570.03	80.9674
570.15	80.9423
570.28	81.0585
570.40	80.9446
570.53	81.1444
570.66	81.1306
570.78	81.2170
570.91	80.9396
571.03	80.9142
571.16	81.0267
571.28	80.8844
571.41	80.8430
571.54	80.8084
571.66	80.7895
571.79	80.8002
571.91	80.7574
572.04	80.4610
572.16	80.5922
572.29	80.6241
572.42	80.6566
572.54	80.6168
572.67	80.8744
572.79	80.8498
572.92	80.8384
573.04	80.9215
573.17	81.2440
573.29	80.9487
573.42	80.8125
573.55	80.8707
573.67	80.8333
573.80	80.7410
573.92	80.7992
574.05	80.8449
574.17	80.8202
574.30	80.8049
574.43	80.5703
574.55	80.7188
574.68	80.7258
574.80	80.7749
574.93	80.7174
575.05	80.8652
575.18	80.7827
575.30	80.6787
575.43	80.7205
575.56	80.7359
575.68	80.8602
575.81	80.8258
575.93	80.9597
576.06	81.0483
576.18	81.1198
576.31	80.6824
576.43	80.7393
576.56	80.8015
576.69	80.7768
576.81	80.6981
576.94	80.9440
577.06	81.0141
577.19	80.8770
577.31	80.4743
577.44	80.4059
577.56	80.2464
577.69	80.2840
577.82	80.5832
577.94	80.6047
578.07	80.4108
578.19	80.8053
578.32	80.8788
578.44	80.6418
578.57	80.9507
578.69	81.0482
578.82	80.7184
578.94	80.5496
579.07	80.5132
579.19	80.3665
579.32	80.5732
579.45	80.8564
579.57	80.8649
579.70	81.0132
579.82	80.8900
579.95	80.8567
580.07	80.6295
580.20	80.6183
580.32	80.5233
580.45	80.6683
580.57	80.5066
580.70	80.4350
580.82	80.8115
580.95	80.6184
581.08	80.6571
581.20	80.6591
581.33	80.7723
581.45	80.2390
581.58	80.6839
581.70	80.6072
581.83	80.5820
581.95	80.6574
582.08	80.9091
582.20	80.7400
582.33	80.8636
582.45	80.8276
582.58	80.7857
582.70	80.7572
582.83	80.6138
582.95	80.4849
583.08	80.4508
583.21	80.5059
583.33	80.7613
583.46	80.7970
583.58	80.7469
583.71	80.9792
583.83	80.9836
583.96	80.7400
584.08	80.7415
584.21	80.9759
584.33	81.1162
584.46	80.9438
584.58	80.8170
584.71	81.0134
584.83	81.1130
584.96	80.8007
585.08	80.7549
585.21	80.8939
585.33	80.6838
585.46	80.6507
585.58	80.8380
585.71	80.8200
585.83	80.8911
585.96	80.8253
586.08	80.5181
586.21	80.5534
586.33	80.5667
586.46	80.4771
586.59	80.4312
586.71	80.4315
586.84	80.4611
586.96	80.6421
587.09	80.3355
587.21	80.4928
587.34	80.7254
587.46	80.4407
587.59	80.3912
587.71	80.8375
587.84	80.8810
587.96	80.5743
588.09	80.6361
588.21	80.5593
588.34	80.4613
588.46	80.4647
588.59	80.7547
588.71	80.8662
588.84	80.6480
588.96	80.6360
589.09	80.8176
589.21	80.8659
589.34	80.7742
589.46	80.9746
589.59	81.1524
589.71	81.0573
589.84	80.8968
589.96	80.8778
590.09	80.9574
590.21	80.7548
590.34	80.8253
590.46	80.8220
590.59	80.6909
590.71	80.8866
590.84	80.7628
590.96	80.5823
591.09	80.7141
591.21	81.0896
591.34	80.6851
591.46	80.7162
591.59	80.6037
591.71	80.7154
591.83	80.5673
591.96	80.8589
592.08	81.0250
592.21	81.2761
592.33	81.2648
592.46	81.1983
592.58	81.0232
592.71	80.9666
592.83	80.6397
592.96	80.5540
593.08	80.7318
593.21	80.9182
593.33	80.9714
593.46	81.0537
593.58	80.9450
593.71	81.0444
593.83	80.7493
593.96	80.6818
594.08	80.8761
594.21	80.8876
594.33	80.8395
594.46	81.2298
594.58	81.2497
594.71	81.1760
594.83	80.7309
594.96	80.5256
595.08	80.4999
595.20	80.6439
595.33	80.2328
595.45	80.6529
595.58	80.8932
595.70	80.8602
595.83	80.6658
595.95	81.1271
596.08	81.2993
596.20	81.1222
596.33	81.1378
596.45	81.3225
596.58	81.1619
596.70	81.0288
596.83	80.9596
596.95	81.0367
597.08	80.8899
597.20	80.9189
597.32	80.9070
597.45	80.9653
597.57	80.9241
597.70	80.9395
597.82	81.0870
597.95	81.0894
598.07	81.0842
598.20	81.1208
598.32	81.0385
598.45	80.8570
598.57	80.9979
598.70	81.1361
598.82	80.8798
598.94	80.8822
599.07	81.0016
599.19	81.2056
599.32	80.9143
599.44	81.0203
599.57	81.1629
599.69	81.3359
599.82	80.7734
599.94	80.8971
600.07	81.1004
600.19	81.1248
600.31	80.6325
600.44	80.7229
600.56	80.8158
600.69	80.6867
600.81	80.6552
600.94	80.8882
601.06	80.9230
601.19	81.1343
601.31	80.9101
601.44	80.8194
601.56	80.8651
601.68	80.9905
601.81	80.5607
601.93	80.9201
602.06	81.1619
602.18	81.0145
602.31	80.9043
602.43	81.1125
602.56	80.9630
602.68	80.6601
602.80	80.9753
602.93	81.0235
603.05	80.9778
603.18	81.0958
603.30	81.3177
603.43	81.1593
603.55	81.2232
603.68	81.2875
603.80	81.1692
603.92	81.0686
604.05	81.2649
604.17	81.2554
604.30	81.1647
604.42	81.0233
604.55	81.0962
604.67	80.9837
604.79	80.9665
604.92	81.0906
605.04	81.2846
605.17	81.2728
605.29	81.0565
605.42	81.1412
605.54	81.0406
605.66	80.9505
605.79	80.8027
605.91	81.0173
606.04	80.8034
606.16	80.8111
606.29	80.9557
606.41	81.1594
606.53	81.0498
606.66	81.3018
606.78	81.3903
606.91	81.2788
607.03	81.2901
607.16	81.2572
607.28	81.0493
607.40	81.0478
607.53	81.1287
607.65	81.1126
607.78	81.0173
607.90	81.2808
608.03	81.2848
608.15	81.4260
608.27	81.4588
608.40	81.7720
608.52	81.5142
608.65	81.6896
608.77	81.4184
608.89	81.1080
609.02	81.1077
609.14	81.1592
609.27	81.0615
609.39	81.5001
609.52	81.8016
609.64	81.8510
609.76	81.8189
609.89	81.5823
610.01	81.3487
610.14	81.3948
610.26	81.1348
610.38	81.4047
610.51	81.6783
610.63	81.5547
610.76	81.4251
610.88	81.3152
611.01	81.1181
611.13	81.1287
611.25	81.2135
611.38	81.2870
611.50	81.4665
611.63	81.5859
611.75	81.4697
611.87	81.2342
612.00	81.2042
612.12	81.5437
612.25	81.5481
612.37	81.5802
612.49	81.5665
612.62	81.6071
612.74	81.3683
612.87	81.4793
612.99	81.3901
613.11	81.4565
613.24	81.4348
613.36	81.4680
613.49	81.3761
613.61	81.3318
613.73	81.6131
613.86	81.7004
613.98	81.6519
614.11	81.5433
614.23	81.5926
614.35	81.5083
614.48	81.4365
614.60	81.3967
614.72	81.5114
614.85	81.6542
614.97	81.7440
615.10	81.7095
615.22	81.7164
615.34	81.8489
615.47	81.8234
615.59	81.7219
615.72	81.9994
615.84	81.8068
615.96	81.7163
616.09	81.8659
616.21	81.7998
616.34	81.5126
616.46	81.7814
616.58	81.6892
616.71	81.4335
616.83	81.3373
616.95	81.3808
617.08	81.4714
617.20	81.6286
617.33	81.5835
617.45	81.8176
617.57	81.9541
617.70	81.8406
617.82	81.6565
617.95	81.8445
618.07	81.7469
618.19	81.5767
618.32	81.7583
618.44	82.0377
618.56	82.2285
618.69	82.1130
618.81	82.2825
618.94	82.1685
619.06	82.0229
619.18	81.9700
619.31	82.0100
619.43	81.7801
619.55	82.0488
619.68	82.1618
619.80	81.6904
619.92	81.6630
620.05	82.0091
620.17	82.0095
620.30	81.8385
620.42	82.2070
620.54	82.4561
620.67	82.3100
620.79	81.8588
620.91	81.8817
621.04	81.8887
621.16	81.9899
621.29	81.9651
621.41	82.1890
621.53	82.4211
621.66	82.2736
621.78	81.8573
621.90	82.0787
622.03	82.2452
622.15	82.1406
622.27	82.3997
622.40	82.5833
622.52	82.6046
622.64	82.4812
622.77	82.2257
622.89	82.1637
623.02	82.2750
623.14	82.0923
623.26	81.9722
623.39	82.2899
623.51	82.4625
623.63	82.2715
623.76	82.1977
623.88	82.3392
624.00	82.1975
624.13	82.0559
624.25	82.1116
624.37	82.0455
624.50	82.3457
624.62	82.6964
624.75	82.5673
624.87	82.8752
624.99	83.1329
625.12	82.4960
625.24	82.1933
625.36	82.3331
625.49	82.0939
625.61	81.8236
625.73	82.3328
625.86	82.4154
625.98	82.4955
626.10	82.4670
626.23	82.5820
626.35	82.5022
626.47	82.4608
626.60	82.3571
626.72	82.3549
626.84	82.5468
626.97	82.6531
627.09	82.4040
627.21	82.2804
627.34	82.6152
627.46	82.5877
627.58	82.3045
627.71	82.9458
627.83	82.9533
627.95	82.4182
628.08	82.3724
628.20	82.6623
628.32	82.3696
628.45	82.4674
628.57	82.7400
628.69	82.6026
628.82	82.6598
628.94	82.7100
629.06	82.7218
629.19	83.0256
629.31	83.1786
629.43	83.0666
629.56	82.8774
629.68	83.0596
629.80	82.9855
629.93	83.0236
630.05	82.9874
630.17	83.3091
630.30	83.1897
630.42	83.2477
630.54	83.4141
630.67	83.1555
630.79	83.0395
630.91	83.0579
631.04	82.9629
631.16	82.8977
631.28	83.2981
631.41	83.1197
631.53	82.9846
631.65	82.8140
631.78	82.6549
631.90	82.8205
632.02	82.7707
632.14	82.9416
632.27	83.1622
632.39	82.9525
632.51	82.7472
632.64	83.0326
632.76	83.0753
632.88	83.1266
633.01	83.3904
633.13	82.9804
633.25	83.1021
633.38	83.1839
633.50	83.1499
633.62	83.3510
633.75	83.6508
633.87	83.5243
633.99	83.5907
634.11	83.4157
634.24	83.2669
634.36	83.3221
634.48	83.0326
634.61	83.0049
634.73	83.2116
634.85	83.3247
634.98	83.4820
635.10	83.4698
635.22	83.4291
635.35	83.6792
635.47	83.6710
635.59	83.5595
635.71	83.8049
635.84	83.6957
635.96	83.6024
636.08	83.5119
636.21	83.4618
636.33	83.6684
636.45	83.9416
636.58	83.5371
636.70	83.6738
636.82	84.0621
636.94	83.8460
637.07	83.5874
637.19	83.8405
637.31	83.9752
637.44	83.7251
637.56	83.8404
637.68	83.9662
637.81	84.3654
637.93	84.0845
638.05	83.6935
638.17	83.7555
638.30	83.8388
638.42	83.4436
638.54	83.5594
638.67	83.9065
638.79	83.9768
638.91	83.9661
639.03	84.0778
639.16	84.1351
639.28	84.2746
639.40	83.9508
639.53	83.9311
639.65	84.0031
639.77	83.8796
639.89	83.7535
640.02	84.1123
640.14	83.8718
640.26	83.8417
640.39	83.9617
640.51	83.8376
640.63	83.6121
640.75	83.8824
640.88	83.8243
641.00	83.3738
641.12	83.6823
641.24	83.9995
641.37	83.5484
641.49	83.6245
641.61	84.0230
641.74	84.0487
641.86	83.7378
641.98	84.1435
642.10	84.1938
642.23	84.2452
642.35	84.0192
642.47	83.9749
642.60	84.0607
642.72	83.9101
642.84	83.7655
642.96	83.7579
643.09	83.9317
643.21	83.9204
643.33	83.9002
643.45	83.8564
643.58	84.1239
643.70	84.1424
643.82	84.1293
643.94	84.2496
644.07	84.4232
644.19	84.2068
644.31	84.2903
644.44	84.3468
644.56	84.4162
644.68	84.5288
644.80	84.7507
644.93	84.6666
645.05	84.6704
645.17	84.6445
645.29	84.5977
645.42	84.2760
645.54	84.2063
645.66	84.2353
645.78	84.1392
645.91	83.9365
646.03	84.2781
646.15	84.4356
646.27	84.3770
646.40	84.2775
646.52	84.5819
646.64	84.6774
646.76	84.4855
646.89	84.3917
647.01	84.3451
647.13	84.4469
647.25	84.2296
647.38	84.1545
647.50	84.4310
647.62	84.8065
647.74	84.4691
647.87	84.2578
647.99	84.4629
648.11	84.5005
648.23	84.2170
648.36	84.4194
648.48	84.7812
648.60	85.0195
648.72	84.5523
648.85	84.6883
648.97	84.7659
649.09	84.7128
649.21	84.5133
649.34	84.7862
649.46	84.8382
649.58	84.9071
649.70	84.7238
649.83	84.6901
649.95	84.6537
650.07	84.5918
650.19	84.3255
650.32	84.3214
650.44	84.3500
650.56	84.3497
650.68	84.3787
650.81	84.2941
650.93	84.4095
651.05	84.2770
651.17	84.3366
651.29	84.3413
651.42	84.6902
651.54	84.9518
651.66	85.0808
651.78	84.7260
651.91	84.8082
652.03	84.8910
652.15	84.7257
652.27	84.8895
652.40	85.3544
652.52	85.5234
652.64	84.9829
652.76	84.9686
652.88	84.9737
653.01	85.1482
653.13	84.8284
653.25	85.0354
653.37	85.0110
653.50	85.0932
653.62	84.6118
653.74	84.5719
653.86	84.8321
653.98	84.8929
654.11	84.7844
654.23	84.7565
654.35	84.9682
654.47	85.1090
654.60	85.4215
654.72	85.1816
654.84	85.5098
654.96	85.5254
655.08	85.3319
655.21	84.9415
655.33	85.1834
655.45	85.2851
655.57	85.1943
655.70	85.0164
655.82	85.0983
655.94	85.3908
656.06	85.1378
656.18	85.0664
656.31	85.2947
656.43	85.3399
656.55	85.0146
656.67	84.9735
656.79	85.2105
656.92	85.2919
657.04	84.9680
657.16	85.0169
657.28	85.0585
657.40	85.1031
657.53	84.8996
657.65	84.9042
657.77	85.0009
657.89	85.2776
658.01	85.0403
658.14	85.1226
658.26	85.5596
658.38	85.4981
658.50	85.0186
658.62	85.1948
658.75	85.2175
658.87	85.4369
658.99	85.4810
659.11	85.5641
659.23	85.6390
659.36	85.6588
659.48	85.3516
659.60	85.3336
659.72	85.5741
659.84	85.4949
659.97	85.0737
660.09	84.8971
660.21	85.0824
660.33	85.3562
660.45	85.2864
660.58	85.4888
660.70	85.8335
660.82	85.5448
660.94	85.1149
661.06	85.0291
661.19	85.3251
661.31	85.1839
661.43	85.0820
661.55	85.0749
661.67	85.3427
661.80	85.1907
661.92	85.1277
662.04	85.2050
662.16	85.5594
662.28	85.4717
662.40	85.4556
662.53	85.6627
662.65	85.6091
662.77	85.6027
662.89	85.7123
663.01	85.7481
663.14	85.4776
663.26	85.7408
663.38	85.5346
663.50	85.1338
663.62	85.1162
663.74	85.2199
663.87	84.9810
663.99	84.6282
664.11	84.9518
664.23	85.1761
664.35	85.1131
664.48	85.3748
664.60	86.0081
664.72	86.0642
664.84	85.7775
664.96	85.9638
665.08	85.8132
665.21	85.9351
665.33	85.8261
665.45	85.7955
665.57	85.7077
665.69	85.7855
665.81	85.5407
665.94	85.3795
666.06	85.4617
666.18	85.7060
666.30	85.5286
666.42	85.4130
666.54	85.7000
666.67	85.6100
666.79	85.3505
666.91	85.6327
667.03	85.6857
667.15	85.6092
667.27	85.8512
667.40	85.6088
667.52	85.4534
667.64	85.7120
667.76	85.6036
667.88	85.4315
668.00	85.7089
668.13	85.8523
668.25	85.7281
668.37	85.6733
668.49	85.9816
668.61	86.1249
668.73	86.0383
668.85	85.9390
668.98	86.2863
669.10	86.0746
669.22	85.7097
669.34	85.8461
669.46	85.7501
669.58	85.4296
669.71	85.5936
669.83	85.7483
669.95	85.5616
670.07	85.5555
670.19	85.7660
670.31	85.6258
670.43	85.4599
670.56	85.4013
670.68	85.6067
670.80	85.1933
670.92	85.1988
671.04	85.5392
671.16	85.7312
671.28	85.5135
671.41	85.9556
671.53	86.2805
671.65	85.8849
671.77	85.6063
671.89	85.7940
672.01	85.9486
672.13	85.5676
672.26	85.9977
672.38	86.0282
672.50	85.8255
672.62	85.4622
672.74	85.6004
672.86	85.4362
672.98	85.6566
673.11	85.6012
673.23	85.7819
673.35	85.7684
673.47	86.0630
673.59	85.9131
673.71	85.7155
673.83	85.6774
673.96	85.8589
674.08	85.4977
674.20	85.5068
674.32	85.8992
674.44	85.9152
674.56	85.5629
674.68	85.5717
674.80	85.8248
674.93	85.9236
675.05	85.8320
675.17	85.9221
675.29	86.0988
675.41	85.9882
675.53	85.9129
675.65	85.7843
675.77	85.8862
675.90	85.9917
676.02	85.6534
676.14	85.3453
676.26	85.5751
676.38	85.4882
676.50	85.3770
676.62	85.8154
676.74	85.9530
676.87	85.6347
676.99	85.5483
677.11	85.4493
677.23	85.2973
677.35	85.5912
677.47	85.8674
677.59	85.8293
677.71	85.8628
677.83	85.7075
677.96	85.5588
678.08	85.6284
678.20	85.8641
678.32	85.9500
678.44	85.7900
678.56	85.7715
678.68	85.9185
678.80	85.9075
678.93	85.7975
679.05	85.8903
679.17	85.9479
679.29	85.8131
679.41	85.7710
679.53	85.7156
679.65	85.9201
679.77	85.8655
679.89	85.5730
680.01	85.8236
680.14	86.0687
680.26	85.9414
680.38	85.8487
680.50	86.0608
680.62	85.8225
680.74	85.7502
680.86	85.9325
680.98	85.7102
681.10	85.7865
681.22	85.9683
681.35	86.1184
681.47	85.5850
681.59	85.9620
681.71	86.0344
681.83	85.6678
681.95	85.1849
682.07	85.6507
682.19	85.6665
682.31	85.2426
682.43	85.4815
682.56	85.7498
682.68	85.7251
682.80	85.5349
682.92	85.8666
683.04	85.9428
683.16	85.7443
683.28	85.7497
683.40	85.7816
683.52	85.7630
683.64	85.6761
683.76	85.9012
683.89	85.7733
684.01	85.8767
684.13	85.8914
684.25	85.7985
684.37	85.8688
684.49	85.8383
684.61	85.8858
684.73	86.0101
684.85	85.8021
684.97	85.8702
685.09	86.3107
685.21	86.0067
685.34	85.9625
685.46	86.2358
685.58	85.8460
685.70	85.7580
685.82	86.0496
685.94	85.9950
686.06	85.9825
686.18	86.2541
686.30	86.0609
686.42	86.1802
686.54	85.8396
686.66	85.8301
686.79	85.4735
686.91	85.4019
687.03	85.4622
687.15	85.8552
687.27	85.6496
687.39	86.0129
687.51	86.1162
687.63	85.8456
687.75	85.4278
687.87	85.7783
687.99	85.5987
688.11	85.3504
688.23	85.4263
688.35	85.8102
688.48	85.7353
688.60	85.7722
688.72	86.0425
688.84	86.1868
688.96	86.2698
689.08	85.7582
689.20	85.7478
689.32	85.8558
689.44	85.8762
689.56	85.6633
689.68	86.0904
689.80	86.1758
689.92	86.0642
690.04	85.9384
690.16	85.9246
690.28	86.1947
690.41	86.0624
690.53	85.7448
690.65	85.5224
690.77	85.5271
690.89	85.2635
691.01	85.4072
691.13	85.5284
691.25	85.7441
691.37	86.0100
691.49	85.6224
691.61	85.4904
691.73	85.8166
691.85	85.8757
691.97	85.3881
692.09	85.6812
692.21	85.6240
692.33	85.7054
692.45	85.6701
692.57	85.7348
692.70	86.0315
692.82	86.2430
692.94	85.9300
693.06	85.9167
693.18	86.2442
693.30	85.8216
693.42	85.7331
693.54	85.8765
693.66	86.1060
693.78	85.9421
693.90	86.2361
694.02	86.4689
694.14	86.4247
694.26	85.9794
694.38	85.9034
694.50	85.9673
694.62	85.9092
694.74	85.8464
694.86	86.0314
694.98	86.0128
695.10	86.0243
695.22	85.8876
695.34	85.9338
695.46	85.8522
695.58	86.0232
695.71	85.9716
695.83	85.6966
695.95	85.8350
696.07	86.0138
696.19	86.1437
696.31	85.8537
696.43	86.1409
696.55	86.2178
696.67	86.2628
696.79	86.2418
696.91	86.1619
697.03	86.2053
697.15	86.2233
697.27	85.8504
697.39	85.7548
697.51	86.0626
697.63	85.7308
697.75	85.5468
697.87	85.9288
697.99	85.8965
698.11	85.8960
698.23	86.1687
698.35	86.1299
698.47	86.1894
698.59	85.8994
698.71	85.9455
698.83	85.9938
698.95	86.0390
699.07	85.7936
699.19	86.1630
699.31	86.0215
699.43	86.0733
699.55	86.0797
699.67	86.1863
699.79	86.1264
699.91	86.2039
700.03	86.1375
700.15	86.0996
700.27	86.2854
700.39	86.1579
700.51	86.1434
700.63	85.9770
700.75	86.1603
700.87	85.9282
700.99	86.2498
701.11	86.3103
701.24	86.2785
701.36	86.1071
701.48	86.2845
701.60	85.8165
701.72	85.8352
701.84	86.1855
701.96	86.0547
702.08	85.7543
702.20	86.0765
702.32	86.2259
702.44	86.2935
702.56	86.5368
702.68	86.4272
702.80	86.3167
702.92	86.2400
703.04	86.0998
703.16	86.2319
703.28	86.5181
703.40	86.5286
703.52	86.3630
703.64	86.2384
703.76	86.0598
703.88	86.0804
704.00	85.9912
704.12	86.1244
704.24	86.1509
704.36	86.2773
704.48	86.1720
704.60	86.3524
704.72	86.0782
704.84	86.1127
704.96	86.1988
705.07	86.3863
705.19	86.2347
705.31	86.5845
705.43	86.4695
705.55	86.2294
705.67	86.3263
705.79	86.5200
705.91	86.3032
706.03	86.3378
706.15	86.4758
706.27	86.2405
706.39	86.2922
706.51	86.4358
706.63	86.4859
706.75	86.2469
706.87	86.3254
706.99	86.4381
707.11	86.4226
707.23	86.4341
707.35	86.4397
707.47	86.2589
707.59	86.1359
707.71	86.0372
707.83	86.1412
707.95	85.9375
708.07	86.0192
708.19	86.2522
708.31	86.2789
708.43	86.0693
708.55	86.3868
708.67	86.3249
708.79	85.9898
708.91	85.8724
709.03	86.0875
709.15	86.0101
709.27	86.0822
709.39	85.9984
709.51	86.0664
709.63	86.2384
709.75	86.1967
709.87	86.2177
709.99	86.4000
710.11	86.6767
710.23	86.1024
710.35	86.1144
710.47	86.1218
710.58	85.9025
710.70	85.6747
710.82	85.9589
710.94	85.9397
711.06	86.0207
711.18	85.9065
711.30	85.8172
711.42	85.8469
711.54	86.2406
711.66	86.1039
711.78	86.0443
711.90	86.3222
712.02	86.5847
712.14	86.0344
712.26	85.7841
712.38	86.1513
712.50	86.0958
712.62	85.9024
712.74	85.7787
712.86	86.1998
712.98	86.2535
713.10	85.9993
713.22	85.8763
713.34	86.2304
713.45	86.1490
713.57	85.9455
713.69	86.0211
713.81	86.2225
713.93	86.6171
714.05	86.3793
714.17	86.2705
714.29	86.5365
714.41	86.3639
714.53	86.0103
714.65	86.4023
714.77	86.2486
714.89	86.0909
715.01	86.1490
715.13	86.1166
715.25	86.0224
715.37	86.1714
715.49	86.1103
715.61	85.8864
715.72	86.0560
715.84	86.1104
715.96	86.0943
716.08	86.0564
716.20	86.3634
716.32	86.2887
716.44	86.1731
716.56	86.0864
716.68	86.1525
716.80	86.2299
716.92	86.2498
717.04	86.2922
717.16	86.7177
717.28	86.5770
717.40	86.3548
717.52	86.2813
717.63	86.2068
717.75	86.1246
717.87	86.3931
717.99	86.2239
718.11	86.0999
718.23	86.0378
718.35	86.2031
718.47	86.0741
718.59	86.3711
718.71	86.3971
718.83	86.7599
718.95	86.5741
719.07	86.6463
719.19	86.6206
719.30	86.7652
719.42	86.5419
719.54	86.5262
719.66	86.7406
719.78	86.7379
719.90	86.8229
720.02	86.7282
720.14	86.7740
720.26	86.5884
720.38	86.8467
720.50	86.6215
720.62	86.9608
720.74	86.9060
720.85	86.6027
720.97	86.5349
721.09	86.5643
721.21	86.3308
721.33	86.4004
721.45	86.5836
721.57	86.6919
721.69	86.4708
721.81	86.1893
721.93	86.3180
722.05	86.6144
722.16	86.3957
722.28	86.5238
722.40	86.5384
722.52	86.7085
722.64	86.5030
722.76	86.3986
722.88	86.8106
723.00	87.1225
723.12	87.2413
723.24	87.0968
723.36	87.0668
723.47	86.9545
723.59	86.8413
723.71	86.6461
723.83	86.8528
723.95	86.7913
724.07	86.3652
724.19	86.6006
724.31	86.7743
724.43	86.9206
724.55	86.5183
724.66	87.0515
724.78	87.0910
724.90	86.6963
725.02	86.4188
725.14	87.2820
725.26	87.1098
725.38	86.8299
725.50	86.8144
725.62	87.0721
725.74	87.2222
725.85	87.4266
725.97	86.2919
726.09	86.6590
726.21	86.8502
726.33	86.5946
726.45	86.4045
726.57	87.6857
726.69	87.3097
726.81	86.9529
726.92	86.7104
727.04	86.7158
727.16	86.7092
727.28	86.8539
727.40	86.3879
727.52	86.1855
727.64	86.1347
727.76	86.2857
727.88	86.2418
727.99	86.6637
728.11	86.9566
728.23	87.0592
728.35	86.8189
728.47	86.6759
728.59	86.8320
728.71	86.8122
728.83	86.5396
728.94	86.4062
729.06	86.5179
729.18	86.4294
729.30	86.1904
729.42	86.1881
729.54	86.4615
729.66	86.3411
729.78	86.2430
729.90	86.7585
730.01	86.9339
730.13	86.9929
730.25	87.0427
730.37	87.2042
730.49	86.9400
730.61	86.8961
730.73	86.8132
730.84	86.8059
730.96	86.9395
731.08	87.0984
731.20	86.5856
731.32	86.6662
731.44	86.7976
731.56	86.3779
731.68	86.1429
731.79	86.7555
731.91	86.4608
732.03	86.4315
732.15	86.6336
732.27	86.5023
732.39	86.6642
732.51	87.0726
732.62	86.8173
732.74	86.8729
732.86	87.1760
732.98	86.8881
733.10	86.2778
733.22	86.7154
733.34	86.5668
733.45	86.4872
733.57	86.5291
733.69	86.9331
733.81	86.8448
733.93	86.9077
734.05	86.9063
734.17	87.0315
734.28	87.2811
734.40	87.2918
734.52	86.9708
734.64	86.9840
734.76	87.1910
734.88	86.9038
735.00	86.4226
735.11	86.9398
735.23	87.2326
735.35	86.7330
735.47	86.7871
735.59	87.2179
735.71	86.9321
735.83	86.5555
735.94	86.6929
736.06	86.5290
736.18	86.3970
736.30	86.7643
736.42	86.8591
736.54	86.3709
736.65	86.6089
736.77	86.8781
736.89	86.1823
737.01	86.5769
737.13	87.3316
737.25	87.1645
737.36	86.9314
737.48	87.5594
737.60	87.1739
737.72	86.7737
737.84	86.9632
737.96	86.8812
738.08	86.9630
738.19	86.8799
738.31	87.1647
738.43	86.9922
738.55	87.2993
738.67	87.1730
738.79	87.1907
738.90	87.3827
739.02	87.5963
739.14	87.2963
739.26	87.0377
739.38	87.3111
739.50	87.1911
739.61	87.0980
739.73	87.1712
739.85	87.1290
739.97	87.3423
740.09	87.2912
740.20	87.1823
740.32	87.5949
740.44	87.8869
740.56	87.5631
740.68	87.5833
740.80	87.4639
740.91	87.0707
741.03	87.1330
741.15	86.8569
741.27	86.7638
741.39	86.7036
741.51	86.8144
741.62	86.7863
741.74	87.1041
741.86	87.1730
741.98	87.4061
742.10	87.3349
742.21	87.3816
742.33	86.9216
742.45	86.9619
742.57	86.8816
742.69	87.0316
742.80	86.9957
742.92	87.4500
743.04	87.0725
743.16	87.3839
743.28	87.3628
743.40	87.4421
743.51	87.3721
743.63	87.7364
743.75	87.4857
743.87	87.3548
743.99	87.1865
744.10	87.2855
744.22	87.0793
744.34	86.9175
744.46	87.1566
744.58	86.8945
744.69	86.7634
744.81	87.2044
744.93	87.0882
745.05	86.6301
745.17	86.9815
745.28	87.0702
745.40	86.8983
745.52	87.1684
745.64	87.6163
745.76	87.7840
745.87	87.5164
745.99	87.5612
746.11	87.6490
746.23	87.6811
746.35	86.9349
746.46	86.9826
746.58	86.8040
746.70	86.7556
746.82	86.7235
746.94	87.4094
747.05	87.7309
747.17	88.0174
747.29	87.5913
747.41	87.8523
747.53	87.8727
747.64	87.6072
747.76	87.2102
747.88	87.7372
748.00	87.5840
748.12	87.5637
748.23	87.6058
748.35	87.7470
748.47	87.8990
748.59	87.8716
748.70	87.8078
748.82	87.9199
748.94	87.8726
749.06	87.8122
749.18	87.4853
749.29	87.4580
749.41	87.5474
749.53	87.5788
749.65	87.7319
749.76	88.0824
749.88	87.9513
750.00	87.7375
750.12	87.8852
750.24	87.8764
750.35	87.5241
750.47	87.7591
750.59	87.6777
750.71	87.9996
750.82	87.9298
750.94	88.1903
751.06	88.1828
751.18	88.4419
751.30	88.0500
751.41	88.0576
751.53	88.1726
751.65	87.9460
751.77	87.8072
751.88	88.2619
752.00	87.8995
752.12	87.8025
752.24	87.9834
752.35	87.9924
752.47	87.3944
752.59	87.9128
752.71	87.5958
752.83	87.8324
752.94	87.8676
753.06	88.0866
753.18	87.8836
753.30	88.1628
753.41	87.8585
753.53	87.8486
753.65	88.1120
753.77	88.1286
753.88	88.0381
754.00	87.8652
754.12	88.1416
754.24	88.4254
754.35	88.1806
754.47	88.1967
754.59	88.6076
754.71	88.6251
754.82	87.9709
754.94	88.2077
755.06	88.2720
755.18	88.2600
755.29	87.9567
755.41	88.2253
755.53	88.2576
755.65	88.3330
755.76	87.8549
755.88	87.9407
756.00	88.1799
756.12	88.1110
756.23	87.5856
756.35	87.9385
756.47	88.2601
756.59	87.9566
756.70	88.1063
756.82	88.4478
756.94	88.3900
757.06	88.2184
757.17	88.4831
757.29	88.2196
757.41	88.4196
757.53	88.4700
757.64	88.2681
757.76	87.9813
757.88	88.1406
758.00	88.3827
758.11	88.3575
758.23	88.5614
758.35	88.5242
758.47	88.6110
758.58	88.3826
758.70	88.6324
758.82	88.4125
758.94	88.6962
759.05	88.6554
759.17	88.2382
759.29	88.0662
759.40	88.2926
759.52	87.9720
759.64	87.7430
759.76	88.1389
759.87	88.2286
759.99	88.4544
760.11	88.6338
760.23	88.7816
760.34	88.8835
760.46	88.9005
760.58	88.5131
760.70	88.4761
760.81	88.5060
760.93	88.5247
761.05	88.7336
761.16	88.9569
761.28	89.2196
761.40	88.9047
761.52	88.6887
761.63	88.4800
761.75	88.5742
761.87	88.4291
761.98	88.9263
762.10	89.0102
762.22	89.3633
762.34	89.1495
762.45	88.5260
762.57	88.5866
762.69	88.5389
762.81	88.5200
762.92	88.4844
763.04	88.6711
763.16	88.5379
763.27	88.5568
763.39	88.0204
763.51	88.1547
763.63	88.8021
763.74	88.8037
763.86	88.9276
763.98	88.8645
764.09	88.9814
764.21	88.7089
764.33	88.6730
764.44	88.5772
764.56	88.8565
764.68	88.9345
764.80	88.5036
764.91	88.6007
765.03	88.7527
765.15	88.9423
765.26	88.5142
765.38	88.9484
765.50	88.8233
765.62	88.6656
765.73	88.6521
765.85	88.7156
765.97	88.8666
766.08	89.0464
766.20	89.1078
766.32	88.8093
766.43	89.0576
766.55	89.0224
766.67	89.0326
766.79	89.2470
766.90	89.5758
767.02	89.7727
767.14	89.0169
767.25	88.9028
767.37	88.8388
767.49	88.3984
767.60	87.9882
767.72	88.7455
767.84	88.9421
767.95	88.7192
768.07	88.8679
768.19	89.0114
768.31	88.9680
768.42	88.7812
768.54	88.5274
768.66	88.4854
768.77	88.6664
768.89	88.5678
769.01	88.3367
769.12	88.7105
769.24	88.9628
769.36	88.9621
769.47	88.7611
769.59	88.8990
769.71	88.9110
769.82	89.1086
769.94	88.7976
770.06	89.2405
770.17	89.2941
770.29	89.0519
770.41	88.9925
770.53	89.1938
770.64	88.9164
770.76	88.8270
770.88	89.4865
770.99	89.3804
771.11	89.4880
771.23	89.3186
771.34	89.2160
771.46	88.8338
771.58	88.7018
771.69	88.3697
771.81	88.8883
771.93	88.7252
772.04	88.7006
772.16	88.5921
772.28	88.8618
772.39	88.4561
772.51	89.0460
772.63	89.2171
772.74	88.7758
772.86	89.0436
772.98	89.3902
773.09	89.2222
773.21	89.0791
773.33	89.9075
773.44	89.4592
773.56	89.0759
773.68	89.2907
773.79	89.4366
773.91	89.4093
774.03	89.2992
774.14	89.7795
774.26	90.0148
774.38	89.8389
774.49	89.5452
774.61	89.9139
774.73	89.7802
774.84	89.3249
774.96	89.5387
775.08	89.6204
775.19	89.4367
775.31	89.4435
775.43	89.6870
775.54	89.1147
775.66	89.4260
775.77	89.2497
775.89	88.9507
776.01	88.7490
776.12	89.5553
776.24	89.4855
776.36	89.4940
776.47	89.4838
776.59	89.8254
776.71	89.7646
776.82	89.7543
776.94	89.8570
777.06	90.4575
777.17	90.5711
777.29	90.2458
777.41	90.1690
777.52	90.0612
777.64	90.1332
777.75	89.9317
777.87	89.6940
777.99	89.5355
778.10	89.8240
778.22	89.5198
778.34	89.1651
778.45	89.4207
778.57	89.5604
778.69	89.0561
778.80	89.0670
778.92	89.4201
779.04	89.4101
779.15	89.2385
779.27	89.5261
779.38	89.7333
779.50	89.6491
779.62	90.1442
779.73	89.7304
779.85	90.1153
779.97	90.2165
780.08	89.9765
780.20	89.4435
780.31	90.1023
780.43	90.1280
780.55	89.5529
780.66	89.1814
780.78	89.6625
780.90	89.8753
781.01	89.8563
781.13	89.6813
781.25	90.4894
781.36	90.2887
781.48	89.6399
781.59	89.3889
781.71	90.1565
781.83	90.3700
781.94	89.8430
782.06	90.2797
782.18	91.0524
782.29	90.5350
782.41	90.0408
782.52	90.6320
782.64	90.8827
782.76	90.9815
782.87	90.7396
782.99	90.1600
783.10	90.3364
783.22	90.1213
783.34	89.2927
783.45	89.7961
783.57	90.1688
783.69	89.4193
783.80	89.2367
783.92	89.5344
784.03	89.4126
784.15	89.7688
784.27	90.1928
784.38	90.1792
784.50	90.1625
784.61	90.3167
784.73	90.4328
784.85	90.0591
784.96	90.0112
785.08	89.9210
785.19	90.1548
785.31	90.1596
785.43	90.1731
785.54	90.2623
785.66	90.0097
785.77	90.1403
785.89	89.9423
786.01	90.2612
786.12	89.9965
786.24	90.1958
786.35	89.8991
786.47	90.2048
786.59	90.1390
786.70	90.6006
786.82	90.5857
786.93	90.4460
787.05	90.2494
787.17	90.4732
787.28	90.1441
787.40	89.9922
787.51	90.3056
787.63	89.9524
787.75	89.5141
787.86	89.7980
787.98	90.0664
788.09	89.6102
788.21	89.8992
788.33	90.7421
788.44	90.6331
788.56	90.9403
788.67	91.0862
788.79	91.3578
788.91	91.2845
789.02	90.8786
789.14	90.3843
789.25	90.6088
789.37	90.2954
789.48	90.1266
789.60	90.3727
789.72	90.2249
789.83	90.5528
789.95	91.0226
790.06	90.4789
790.18	90.5204
790.30	90.6913
790.41	90.2323
790.53	89.9939
790.64	90.2543
790.76	90.4633
790.87	90.4227
790.99	90.4448
791.11	90.4006
791.22	90.1651
791.34	90.0929
791.45	90.4040
791.57	90.6119
791.68	90.1038
791.80	90.3286
791.92	90.6407
792.03	90.6123
792.15	90.5157
792.26	90.7265
792.38	90.7273
792.49	90.6696
792.61	90.8272
792.73	91.3050
792.84	93.2055
792.96	88.4037
793.07	88.8878
793.19	89.8180
793.30	90.0655
793.42	88.9643
793.54	92.8831
793.65	92.5689
793.77	91.9109
793.88	91.0512
794.00	90.6449
794.11	91.2928
794.23	91.3671
794.34	91.4511
794.46	90.6169
794.58	90.0146
794.69	90.9916
794.81	91.1922
794.92	89.7667
795.04	90.1917
795.15	90.4624
795.27	90.1123
795.39	89.6994
795.50	90.6468
795.62	91.1788
795.73	91.2901
795.85	90.5708
795.96	90.7849
796.08	90.8766
796.19	91.0667
796.31	91.2485
796.42	91.4491
796.54	91.5624
796.66	91.9760
796.77	91.0846
796.89	91.4557
797.00	91.8807
797.12	91.1764
797.23	90.4194
797.35	90.8213
797.46	90.1752
797.58	90.1732
797.69	90.4599
797.81	90.8531
797.93	91.2138
798.04	91.0834
798.16	91.2838
798.27	91.5143
798.39	91.6529
798.50	91.7496
798.62	91.3482
798.73	91.1854
798.85	90.9740
798.96	90.2724
799.08	90.0014
799.19	90.8850
799.31	91.2846
799.43	91.2501
799.54	91.1606
799.66	91.3528
799.77	91.8651
799.89	91.3858
800.00	90.8812
800.12	90.8028
800.23	91.1832
800.35	90.9126
800.46	90.4853
800.58	90.8819
800.69	91.5118
800.81	90.5513
800.92	90.4642
801.04	91.1840
801.16	91.4142
801.27	91.2504
801.39	91.7066
801.50	90.9704
801.62	90.3069
801.73	90.6607
801.85	90.5452
801.96	90.1972
802.08	91.2948
802.19	91.8233
802.31	90.8675
802.42	90.8813
802.54	91.6834
802.65	90.7888
802.77	91.3694
802.88	91.2992
803.00	91.8056
803.11	91.6265
803.23	91.7785
803.34	91.3586
803.46	91.5301
803.57	91.6219
803.69	91.0695
803.80	91.4638
803.92	91.2489
804.03	91.4052
804.15	90.8827
804.26	91.5886
804.38	91.1339
804.50	90.8043
804.61	90.9155
804.73	91.6829
804.84	91.3630
804.96	91.7384
805.07	91.8811
805.19	91.7183
805.30	91.2624
805.42	91.2194
805.53	91.3092
805.65	91.7574
805.76	91.9705
805.88	91.6879
805.99	91.9503
806.11	91.7252
806.22	91.4137
806.34	91.5555
806.45	91.2837
806.57	91.4017
806.68	91.1769
806.80	90.9625
806.91	91.3726
807.03	92.0787
807.14	91.9686
807.26	91.8736
807.37	92.6091
807.49	91.9330
807.60	91.1690
807.72	91.2687
807.83	91.7805
807.95	91.2137
808.06	90.9923
808.17	91.7002
808.29	91.2232
808.40	90.6987
808.52	90.3927
808.63	91.0056
808.75	90.5756
808.86	90.8702
808.98	91.0408
809.09	91.5979
809.21	91.3242
809.32	92.2694
809.44	91.9383
809.55	92.4625
809.67	91.8593
809.78	91.2791
809.90	90.7081
810.01	90.0002
810.13	89.8787
810.24	90.5881
810.36	91.3198
810.47	90.8408
810.59	91.0686
810.70	91.2142
810.82	91.1053
810.93	91.1749
811.05	91.7152
811.16	92.0485
811.27	90.8244
811.39	91.1775
811.50	92.1529
811.62	91.7902
811.73	91.9707
811.85	92.7578
811.96	92.3712
812.08	91.5442
812.19	91.8787
812.31	92.6086
812.42	92.6069
812.54	92.1697
812.65	92.0700
812.77	91.9876
812.88	91.4545
813.00	92.2494
813.11	92.8696
813.22	93.1931
813.34	92.3187
813.45	91.5186
813.57	91.3512
813.68	91.9785
813.80	92.0817
813.91	91.6665
814.03	92.8288
814.14	92.1579
814.26	91.0316
814.37	91.0094
814.49	92.2509
814.60	91.3970
814.71	91.9280
814.83	92.0643
814.94	91.2343
815.06	91.8076
815.17	93.2339
815.29	91.5928
815.40	91.9971
815.52	93.0926
815.63	92.2023
815.75	92.1745
815.86	93.4096
815.97	92.5733
816.09	91.5261
816.20	93.1590
816.32	92.1037
816.43	92.4647
816.55	91.4189
816.66	92.1057
816.78	90.9468
816.89	91.5950
817.00	91.8704
817.12	92.4396
817.23	92.1388
817.35	93.1562
817.46	91.2818
817.58	91.2011
817.69	92.2008
817.81	91.9172
817.92	90.4789
818.03	92.5530
818.15	92.6210
818.26	92.5079
818.38	98.4009
818.49	106.3632
818.61	88.2513
818.72	91.5159
818.83	100.2729
818.95	96.2495
819.06	87.5262
819.18	106.7788
819.29	102.7655
819.41	93.5076
819.52	91.8415
819.64	93.5832
819.75	93.2785
819.86	91.7605
819.98	92.1183
820.09	93.1888
820.21	91.2370
820.32	89.5002
820.44	92.6366
820.55	92.5617
820.66	91.8610
820.78	92.3890
820.89	94.4103
821.01	92.6518
821.12	94.5090
821.23	91.8759
821.35	91.5297
821.46	92.9824
821.58	94.1853
821.69	90.6003
821.81	91.9293
821.92	91.0029
822.03	91.0991
822.15	90.8958
822.26	91.0183
822.38	91.0835
822.49	92.0456
822.61	89.0502
822.72	88.2598
822.83	91.6833
822.95	91.0988
823.06	89.5474
823.18	90.4517
823.29	91.9666
823.40	94.6210
823.52	90.8430
823.63	93.4040
823.75	98.0793
823.86	93.5319
823.97	91.6665
824.09	96.8705
824.20	98.0155
824.32	93.5595
824.43	91.9921
824.55	92.1572
824.66	93.4543
824.77	88.7796
824.89	89.8257
825.00	92.8110
825.12	92.1424
825.23	94.0624
825.34	92.9390
825.46	92.5655
825.57	99.3586
825.69	96.9348
825.80	96.5008
825.91	98.0337
826.03	100.9414
826.14	94.5218
826.26	94.9336
826.37	91.6064
826.48	100.4876
826.60	97.0034
826.71	98.1302
826.83	91.2790
826.94	88.9642
827.05	87.5276
827.17	89.7201
827.28	93.9894
827.39	99.2436
827.51	102.9045
827.62	100.5143
827.74	106.5682
827.85	104.8430
827.96	87.5640
828.08	98.7152
828.19	131.1424
828.31	113.1615
828.42	98.1188
828.53	112.8025
828.65	18.9073
828.76	0.0000
828.87	0.0000
828.99	0.0000
