Wavelength (nm)	Reflectance (%)
377.35	0.0000
377.48	0.0000
377.62	0.0000
377.75	94.3830
377.88	0.0000
378.02	131.2381
378.15	200.0000
378.28	200.0000
378.41	147.1111
378.55	169.4118
378.68	0.0000
378.81	200.0000
378.95	200.0000
379.08	200.0000
379.21	200.0000
379.35	0.0000
379.48	106.3256
379.61	128.4966
379.74	73.0119
379.88	0.0000
380.01	21.4124
380.14	46.9157
380.28	0.0000
380.41	0.0000
380.54	72.5371
380.68	71.0572
380.81	25.4191
380.94	12.1462
381.07	43.4679
381.21	52.1276
381.34	0.0000
381.47	15.0875
381.61	78.5861
381.74	57.5507
381.87	0.0000
382.00	44.2007
382.14	69.5305
382.27	5.0313
382.40	0.0000
382.54	40.1664
382.67	47.2350
382.80	10.0965
382.93	32.6246
383.07	44.3367
383.20	41.3165
383.33	67.2114
383.47	28.9814
383.60	27.2778
383.73	54.3272
383.86	48.8756
384.00	3.2310
384.13	39.2284
384.26	48.4288
384.40	18.3744
384.53	4.7283
384.66	24.7405
384.79	43.6017
384.93	35.5074
385.06	14.9254
385.19	18.6739
385.33	21.2855
385.46	0.0167
385.59	12.9078
385.72	48.9391
385.86	39.3017
385.99	38.7295
386.12	38.4533
386.25	9.2565
386.39	16.4947
386.52	33.6306
386.65	27.1978
386.79	7.5920
386.92	43.4027
387.05	51.7941
387.18	27.0876
387.32	19.8661
387.45	60.8211
387.58	51.9884
387.71	35.3202
387.85	41.2831
387.98	40.0650
388.11	38.9294
388.25	24.4785
388.38	13.9794
388.51	24.8440
388.64	49.0576
388.78	50.2406
388.91	24.3797
389.04	47.0345
389.17	42.2947
389.31	7.6702
389.44	0.0000
389.57	37.1220
389.70	34.4463
389.84	40.0567
389.97	42.0886
390.10	47.3704
390.24	49.2706
390.37	27.0218
390.50	23.4685
390.63	29.3801
390.77	20.2342
390.90	20.0999
391.03	36.8265
391.16	29.9416
391.30	33.2952
391.43	50.5791
391.56	31.1557
391.69	35.7652
391.83	53.7425
391.96	32.3258
392.09	22.4919
392.22	51.8365
392.36	54.5588
392.49	25.7205
392.62	28.8166
392.75	37.3475
392.89	29.7778
393.02	33.0010
393.15	19.4675
393.28	42.2663
393.42	33.0154
393.55	33.4900
393.68	22.9270
393.81	47.8654
393.95	47.5443
394.08	43.8832
394.21	36.0711
394.34	34.9221
394.48	37.3309
394.61	27.8397
394.74	33.4233
394.87	29.6676
395.01	46.9171
395.14	31.1047
395.27	17.4252
395.40	26.2236
395.54	33.3537
395.67	10.6008
395.80	24.1425
395.93	39.8412
396.07	38.1569
396.20	33.7208
396.33	37.2991
396.46	40.0997
396.59	45.8191
396.73	27.8616
396.86	25.9189
396.99	42.8035
397.12	57.4044
397.26	8.2607
397.39	14.1793
397.52	34.2007
397.65	28.4007
397.79	0.3193
397.92	45.8155
398.05	58.0168
398.18	35.0294
398.32	23.4530
398.45	30.4437
398.58	36.4071
398.71	28.4466
398.84	26.7536
398.98	26.6055
399.11	31.8637
399.24	26.6105
399.37	27.6314
399.51	34.2391
399.64	36.4000
399.77	35.0289
399.90	40.5156
400.03	30.9110
400.17	24.8255
400.30	27.5621
400.43	28.4717
400.56	22.4622
400.70	37.3974
400.83	43.4357
400.96	43.3403
401.09	34.5556
401.23	34.7160
401.36	27.6674
401.49	26.3475
401.62	29.5169
401.75	38.9972
401.89	33.9631
402.02	34.0704
402.15	36.0280
402.28	38.3289
402.41	41.9322
402.55	33.3818
402.68	30.6218
402.81	37.2236
402.94	39.9833
403.08	30.2486
403.21	35.9868
403.34	46.9651
403.47	37.5522
403.60	25.6527
403.74	33.7583
403.87	37.2819
404.00	35.9387
404.13	43.2710
404.26	42.9866
404.40	39.6933
404.53	46.0535
404.66	34.1106
404.79	28.9462
404.93	43.3703
405.06	41.3317
405.19	31.7318
405.32	35.0025
405.45	41.9690
405.59	42.5037
405.72	20.6460
405.85	31.5316
405.98	43.1072
406.11	38.2005
406.25	23.5067
406.38	45.9918
406.51	44.4379
406.64	40.7673
406.77	36.7045
406.91	44.3137
407.04	46.0141
407.17	44.6540
407.30	33.6288
407.43	32.5823
407.57	38.6636
407.70	40.2264
407.83	42.6598
407.96	39.2653
408.09	49.5482
408.23	51.2850
408.36	36.0367
408.49	32.1943
408.62	51.8624
408.75	47.0661
408.89	42.1294
409.02	48.9474
409.15	49.0011
409.28	52.1071
409.41	40.0239
409.55	39.0998
409.68	53.7839
409.81	50.4655
409.94	40.4963
410.07	56.7760
410.20	57.2821
410.34	49.2896
410.47	48.4764
410.60	53.9015
410.73	49.9752
410.86	52.5535
411.00	53.5539
411.13	57.4870
411.26	50.8162
411.39	52.6660
411.52	50.9917
411.66	54.6853
411.79	53.6263
411.92	59.3121
412.05	59.5822
412.18	54.8899
412.31	49.2412
412.45	59.6870
412.58	59.4375
412.71	52.8984
412.84	62.4975
412.97	70.2177
413.11	62.4731
413.24	52.7036
413.37	63.8843
413.50	65.7526
413.63	59.5525
413.76	59.5564
413.90	71.8982
414.03	69.4670
414.16	66.5927
414.29	60.2467
414.42	66.5545
414.56	65.0927
414.69	65.6447
414.82	63.3339
414.95	72.1709
415.08	65.3794
415.21	74.8616
415.35	71.6378
415.48	68.2165
415.61	79.9964
415.74	86.0442
415.87	65.0739
416.00	71.2050
416.14	83.6023
416.27	75.8874
416.40	72.2998
416.53	85.5632
416.66	89.6494
416.79	80.9391
416.93	79.6538
417.06	82.0263
417.19	83.3269
417.32	83.9640
417.45	79.5064
417.58	80.4990
417.72	80.7277
417.85	74.7902
417.98	72.9065
418.11	81.0771
418.24	80.6816
418.37	81.6416
418.51	79.9450
418.64	77.6336
418.77	83.7342
418.90	84.7723
419.03	79.0016
419.16	90.4344
419.29	98.1107
419.43	81.0831
419.56	79.6381
419.69	90.6210
419.82	88.4890
419.95	82.4561
420.08	86.7678
420.22	86.7980
420.35	83.2844
420.48	87.9859
420.61	82.9735
420.74	93.4705
420.87	99.5863
421.00	96.3688
421.14	86.2371
421.27	91.9225
421.40	91.3757
421.53	89.9517
421.66	93.4567
421.79	98.0773
421.93	102.1463
422.06	97.7232
422.19	94.9738
422.32	96.0259
422.45	100.8383
422.58	94.6592
422.71	93.1972
422.85	98.5580
422.98	100.2445
423.11	97.6392
423.24	99.8742
423.37	101.7208
423.50	99.1438
423.63	98.5133
423.77	96.4251
423.90	92.8748
424.03	94.9247
424.16	98.4942
424.29	98.4188
424.42	101.4362
424.55	102.9069
424.69	102.4139
424.82	103.0624
424.95	98.4025
425.08	97.3422
425.21	100.0112
425.34	99.2517
425.47	98.3563
425.60	102.3627
425.74	102.0659
425.87	100.0175
426.00	102.5226
426.13	101.2741
426.26	100.9891
426.39	96.5260
426.52	99.2661
426.66	103.5295
426.79	95.0238
426.92	91.5646
427.05	98.6545
427.18	99.8213
427.31	96.7736
427.44	102.2082
427.57	108.0929
427.71	105.5769
427.84	98.7651
427.97	95.5272
428.10	100.8241
428.23	106.0036
428.36	98.9382
428.49	98.1641
428.62	101.9870
428.76	104.3142
428.89	97.2197
429.02	98.1147
429.15	105.4175
429.28	104.9200
429.41	100.6296
429.54	97.7229
429.67	104.3601
429.81	105.7534
429.94	100.8413
430.07	94.0782
430.20	98.4419
430.33	99.1711
430.46	96.3019
430.59	101.9045
430.72	106.1272
430.85	106.7634
430.99	103.0096
431.12	99.5902
431.25	100.5020
431.38	104.5667
431.51	98.0864
431.64	98.4759
431.77	103.7668
431.90	104.5968
432.03	101.3876
432.17	104.0925
432.30	107.9444
432.43	105.9753
432.56	102.6454
432.69	100.1634
432.82	102.3068
432.95	100.9436
433.08	101.5958
433.21	101.5358
433.35	105.8176
433.48	104.4467
433.61	105.7846
433.74	103.0906
433.87	105.9481
434.00	105.0836
434.13	105.1920
434.26	102.7035
434.39	106.7319
434.53	105.3506
434.66	107.0452
434.79	102.8335
434.92	106.6585
435.05	106.1889
435.18	100.4248
435.31	97.7215
435.44	103.1445
435.57	104.5505
435.70	101.7820
435.84	99.7492
435.97	102.2172
436.10	103.3602
436.23	99.0088
436.36	99.1565
436.49	105.5974
436.62	102.8251
436.75	100.4657
436.88	100.7842
437.01	104.4998
437.14	104.6006
437.28	101.4180
437.41	99.1852
437.54	102.7684
437.67	105.2730
437.80	97.3586
437.93	98.5083
438.06	105.2063
438.19	104.3611
438.32	98.7895
438.45	102.3360
438.58	104.1625
438.72	102.7187
438.85	100.5566
438.98	100.0174
439.11	102.7318
439.24	103.3855
439.37	99.3053
439.50	101.3185
439.63	104.7291
439.76	106.5441
439.89	106.5705
440.02	105.3345
440.15	104.8083
440.29	105.8412
440.42	102.8477
440.55	98.9285
440.68	104.8110
440.81	105.9538
440.94	99.4353
441.07	100.3987
441.20	105.9802
441.33	103.1918
441.46	100.6703
441.59	104.7064
441.72	105.8085
441.85	103.4712
441.99	99.9872
442.12	99.1158
442.25	99.0352
442.38	101.1473
442.51	101.1690
442.64	103.6074
442.77	105.6076
442.90	106.6991
443.03	104.3449
443.16	101.6703
443.29	103.2837
443.42	101.4588
443.55	100.8837
443.68	100.9990
443.82	104.7135
443.95	102.0339
444.08	103.0949
444.21	101.9383
444.34	101.8615
444.47	101.2445
444.60	104.0008
444.73	101.5859
444.86	101.9860
444.99	102.6328
445.12	103.7444
445.25	100.9675
445.38	102.0872
445.51	103.9889
445.64	107.4360
445.78	101.1707
445.91	100.4056
446.04	104.7670
446.17	101.2592
446.30	95.8954
446.43	102.4705
446.56	104.9364
446.69	99.0154
446.82	98.0192
446.95	100.0434
447.08	100.2598
447.21	98.3467
447.34	99.2574
447.47	101.4543
447.60	98.7214
447.73	97.4870
447.86	98.8101
447.99	99.0835
448.13	100.4241
448.26	100.8047
448.39	98.7000
448.52	99.6321
448.65	100.3226
448.78	97.5398
448.91	100.3655
449.04	100.7262
449.17	99.3170
449.30	100.2007
449.43	98.6454
449.56	96.7092
449.69	100.2284
449.82	98.6487
449.95	96.0996
450.08	98.9966
450.21	100.0760
450.34	96.7901
450.47	99.1644
450.60	101.9144
450.73	103.2588
450.87	101.8318
451.00	96.8598
451.13	97.8339
451.26	96.1766
451.39	94.3123
451.52	94.4990
451.65	100.0232
451.78	100.4875
451.91	98.0705
452.04	95.9415
452.17	98.5728
452.30	99.3111
452.43	95.4162
452.56	100.0464
452.69	99.6097
452.82	97.4439
452.95	98.4340
453.08	97.6104
453.21	96.7853
453.34	98.9908
453.47	95.8858
453.60	93.7873
453.73	96.4525
453.86	94.8283
453.99	95.5845
454.12	97.8670
454.25	99.0957
454.38	98.0634
454.52	98.3208
454.65	98.3870
454.78	97.6286
454.91	96.5069
455.04	97.8321
455.17	94.7207
455.30	94.5732
455.43	97.2561
455.56	95.7892
455.69	93.6151
455.82	97.5517
455.95	97.1035
456.08	95.9377
456.21	97.6323
456.34	98.0693
456.47	97.5440
456.60	97.6062
456.73	95.5316
456.86	95.4748
456.99	96.5211
457.12	94.0738
457.25	92.7597
457.38	93.6089
457.51	93.3245
457.64	92.8358
457.77	94.6492
457.90	95.4600
458.03	95.6685
458.16	94.7517
458.29	95.3262
458.42	95.7709
458.55	96.3723
458.68	94.6279
458.81	91.5927
458.94	93.2926
459.07	94.7242
459.20	93.4503
459.33	92.5073
459.46	95.5513
459.59	95.3510
459.72	91.5944
459.85	91.0616
459.98	93.8407
460.11	95.4187
460.24	91.5909
460.37	92.6824
460.50	94.4485
460.63	94.5587
460.76	91.9260
460.89	93.2230
461.02	95.0314
461.15	94.8633
461.28	92.0609
461.41	94.4168
461.54	95.2446
461.67	93.1394
461.80	92.7948
461.93	93.7248
462.06	93.0230
462.19	93.7687
462.32	92.9396
462.45	92.9104
462.58	93.6641
462.71	94.2262
462.84	92.5018
462.97	93.0487
463.10	91.9692
463.23	92.1132
463.36	92.4751
463.49	92.4230
463.62	93.1255
463.75	94.2045
463.88	96.2597
464.01	92.4808
464.14	93.8361
464.27	95.1155
464.40	94.0160
464.53	92.1597
464.66	93.6729
464.79	93.6958
464.92	92.4516
465.05	92.6867
465.18	92.6204
465.31	94.0161
465.44	93.7922
465.57	91.0203
465.70	91.7735
465.83	93.6414
465.96	92.0636
466.09	90.9282
466.22	94.3529
466.35	94.5336
466.48	92.9052
466.61	92.9644
466.74	92.5579
466.87	91.4572
467.00	89.9397
467.13	90.8317
467.26	92.5174
467.39	93.3544
467.52	91.8402
467.65	92.9880
467.78	91.8565
467.91	90.5975
468.04	90.5395
468.17	93.0471
468.30	93.1816
468.43	92.6681
468.56	91.9124
468.69	93.0600
468.82	92.4691
468.95	92.3343
469.08	93.4196
469.21	92.9147
469.34	90.9163
469.47	91.9886
469.60	91.9624
469.73	90.8111
469.86	93.6082
469.99	94.7051
470.11	92.3922
470.24	91.9201
470.37	93.1679
470.50	92.5451
470.63	91.5834
470.76	91.0531
470.89	92.6130
471.02	92.9352
471.15	90.4877
471.28	90.0153
471.41	92.1652
471.54	92.1896
471.67	89.9693
471.80	90.9395
471.93	92.4067
472.06	93.0626
472.19	90.0832
472.32	90.5239
472.45	91.4202
472.58	91.0652
472.71	90.2227
472.84	92.4534
472.97	92.2006
473.10	92.8547
473.23	91.6627
473.36	90.8362
473.49	90.1068
473.62	90.3014
473.74	89.7561
473.87	91.4849
474.00	91.5448
474.13	91.0885
474.26	91.8882
474.39	91.5599
474.52	90.1800
474.65	91.4942
474.78	92.3546
474.91	90.4718
475.04	90.3105
475.17	91.2180
475.30	89.7561
475.43	89.5316
475.56	91.1008
475.69	92.0026
475.82	90.9720
475.95	91.8360
476.08	91.8391
476.21	91.7315
476.34	89.9681
476.46	90.9762
476.59	90.6153
476.72	90.8707
476.85	89.5941
476.98	89.7830
477.11	90.1948
477.24	89.7673
477.37	88.7408
477.50	90.0606
477.63	90.7546
477.76	90.1251
477.89	89.7519
478.02	89.8342
478.15	89.6906
478.28	90.0160
478.41	88.9668
478.54	89.7072
478.66	90.1529
478.79	90.2880
478.92	89.6453
479.05	90.4898
479.18	89.8191
479.31	89.9708
479.44	89.6877
479.57	89.6350
479.70	90.3237
479.83	91.1141
479.96	89.3822
480.09	88.9079
480.22	89.2510
480.35	88.6587
480.48	88.4949
480.60	89.2320
480.73	89.8298
480.86	89.8523
480.99	89.5099
481.12	88.3820
481.25	89.5347
481.38	89.5575
481.51	88.7673
481.64	88.8775
481.77	89.8613
481.90	89.4025
482.03	88.4377
482.16	88.9103
482.29	88.8964
482.41	89.2018
482.54	89.2639
482.67	89.7775
482.80	90.4507
482.93	90.0053
483.06	89.3535
483.19	89.5047
483.32	89.8115
483.45	88.7835
483.58	88.4466
483.71	88.0669
483.84	87.4943
483.97	87.2080
484.09	87.3204
484.22	88.1335
484.35	88.4830
484.48	88.4171
484.61	88.4347
484.74	88.7992
484.87	88.4100
485.00	88.6725
485.13	88.6378
485.26	88.9790
485.39	87.9109
485.52	87.5507
485.64	86.8621
485.77	87.4232
485.90	87.1192
486.03	88.2723
486.16	88.5734
486.29	88.8505
486.42	88.7142
486.55	88.3013
486.68	87.6965
486.81	88.1669
486.94	87.9867
487.06	87.3768
487.19	87.7353
487.32	88.0859
487.45	87.5620
487.58	88.0851
487.71	88.1229
487.84	87.5967
487.97	87.2851
488.10	87.7220
488.23	87.0196
488.35	87.4678
488.48	88.0521
488.61	88.3492
488.74	88.0922
488.87	87.7926
489.00	87.7338
489.13	87.9015
489.26	87.7315
489.39	87.6306
489.52	88.3070
489.64	88.0409
489.77	87.7404
489.90	87.4934
490.03	87.5888
490.16	87.6818
490.29	87.2402
490.42	87.4025
490.55	87.4051
490.68	87.7967
490.81	86.9872
490.93	87.3862
491.06	87.2557
491.19	86.9483
491.32	86.6774
491.45	87.0504
491.58	87.1229
491.71	87.3189
491.84	87.0148
491.97	86.6626
492.09	87.0711
492.22	86.7264
492.35	86.5190
492.48	87.3500
492.61	87.1244
492.74	86.8044
492.87	87.1570
493.00	86.7022
493.12	86.3256
493.25	86.7642
493.38	87.1704
493.51	86.7880
493.64	86.9308
493.77	87.0396
493.90	86.4803
494.03	85.9007
494.16	86.3918
494.28	86.9558
494.41	86.3407
494.54	86.4684
494.67	87.1830
494.80	86.8127
494.93	86.3891
495.06	87.1043
495.19	87.5881
495.31	87.3667
495.44	87.2709
495.57	87.4514
495.70	87.7535
495.83	87.7137
495.96	86.9504
496.09	86.6944
496.22	87.1541
496.34	86.8288
496.47	86.1803
496.60	86.2781
496.73	86.9235
496.86	86.0531
496.99	86.1373
497.12	86.4076
497.24	86.5223
497.37	86.4237
497.50	86.8745
497.63	86.1511
497.76	85.8603
497.89	86.7318
498.02	86.6527
498.15	86.2063
498.27	86.3889
498.40	86.7074
498.53	86.0115
498.66	86.4002
498.79	86.5581
498.92	86.7807
499.05	86.9888
499.17	86.4689
499.30	85.9999
499.43	86.4834
499.56	86.3061
499.69	86.0603
499.82	86.6927
499.95	86.8373
500.07	86.3918
500.20	85.7138
500.33	85.8028
500.46	85.9776
500.59	85.7391
500.72	85.4627
500.85	85.9929
500.97	86.4169
501.10	86.2365
501.23	85.7275
501.36	85.8076
501.49	86.2969
501.62	85.4281
501.75	85.7285
501.87	86.2039
502.00	86.1982
502.13	86.1654
502.26	86.4962
502.39	86.3595
502.52	86.3410
502.64	86.0235
502.77	85.8105
502.90	86.1124
503.03	85.9321
503.16	85.4986
503.29	85.8508
503.42	86.0215
503.54	85.8673
503.67	85.1751
503.80	85.9905
503.93	86.1167
504.06	85.4810
504.19	85.3756
504.31	85.7079
504.44	85.2223
504.57	85.4543
504.70	85.7471
504.83	85.7395
504.96	85.9309
505.08	85.4322
505.21	85.0078
505.34	85.2144
505.47	85.2624
505.60	85.3350
505.73	85.2215
505.85	85.5253
505.98	85.7757
506.11	85.6957
506.24	85.4787
506.37	85.7119
506.50	85.6330
506.62	85.3953
506.75	85.0974
506.88	85.4827
507.01	85.8487
507.14	85.8106
507.27	85.7734
507.39	86.1565
507.52	85.5028
507.65	85.7369
507.78	85.3915
507.91	85.1333
508.04	84.9152
508.16	85.2400
508.29	85.4124
508.42	85.8176
508.55	85.4016
508.68	85.6046
508.81	85.7942
508.93	85.3672
509.06	85.1057
509.19	85.7670
509.32	85.3985
509.45	85.2997
509.57	85.2278
509.70	85.3230
509.83	85.0930
509.96	85.2863
510.09	85.2388
510.22	85.5178
510.34	85.0899
510.47	85.2947
510.60	85.2853
510.73	85.2177
510.86	85.1662
510.98	85.3835
511.11	85.2155
511.24	85.4127
511.37	85.4868
511.50	85.3687
511.63	85.5283
511.75	85.4442
511.88	85.2074
512.01	84.9884
512.14	84.9298
512.27	84.8561
512.39	84.8365
512.52	84.8794
512.65	84.9941
512.78	84.8222
512.91	84.6172
513.03	84.4887
513.16	84.5459
513.29	84.4578
513.42	84.3330
513.55	84.8361
513.67	85.2223
513.80	84.9660
513.93	84.7579
514.06	85.0473
514.19	84.5739
514.31	84.6402
514.44	84.6834
514.57	84.5583
514.70	84.7834
514.83	85.0713
514.95	84.7473
515.08	84.7816
515.21	85.0632
515.34	84.9993
515.47	84.7865
515.59	84.7850
515.72	84.4434
515.85	84.6406
515.98	84.3832
516.11	84.2858
516.23	84.5478
516.36	85.1449
516.49	84.8257
516.62	84.6387
516.75	85.2367
516.87	85.0815
517.00	84.3702
517.13	84.4808
517.26	85.2192
517.39	84.6938
517.51	84.1636
517.64	84.8471
517.77	84.7531
517.90	84.2872
518.02	84.6223
518.15	84.8587
518.28	84.4260
518.41	84.3455
518.54	84.3057
518.66	84.2058
518.79	84.3935
518.92	84.4077
519.05	84.2210
519.18	84.2360
519.30	84.0296
519.43	83.9741
519.56	83.7515
519.69	84.1340
519.81	84.2679
519.94	84.2189
520.07	84.1585
520.20	84.3358
520.33	84.3120
520.45	84.1118
520.58	83.9549
520.71	83.9673
520.84	84.2158
520.96	84.2823
521.09	84.0341
521.22	84.0283
521.35	84.3355
521.48	84.4048
521.60	84.1969
521.73	83.9489
521.86	84.2844
521.99	84.2273
522.11	83.8712
522.24	84.0354
522.37	84.0716
522.50	84.2641
522.62	84.0268
522.75	84.2329
522.88	84.0243
523.01	84.2575
523.14	83.6653
523.26	84.0322
523.39	83.6766
523.52	83.7771
523.65	83.9839
523.77	84.1658
523.90	83.7560
524.03	84.0331
524.16	84.1075
524.28	84.0078
524.41	84.3571
524.54	84.5054
524.67	84.2621
524.79	83.8929
524.92	84.1769
525.05	83.7846
525.18	83.9984
525.31	83.5755
525.43	84.0524
525.56	84.3045
525.69	84.1793
525.82	83.6855
525.94	84.3705
526.07	84.2831
526.20	83.4944
526.33	83.5446
526.45	83.7793
526.58	83.8401
526.71	83.5824
526.84	83.9785
526.96	83.9570
527.09	83.9120
527.22	83.9505
527.35	83.6123
527.47	83.6349
527.60	83.5622
527.73	83.3243
527.86	83.1033
527.98	83.6392
528.11	83.2379
528.24	83.6134
528.37	83.7381
528.49	83.4208
528.62	83.6467
528.75	83.9256
528.88	83.6291
529.00	83.8214
529.13	84.1995
529.26	83.4370
529.39	83.0906
529.51	83.3963
529.64	83.2868
529.77	83.0196
529.90	83.3898
530.02	83.8668
530.15	83.7218
530.28	83.6645
530.40	83.7433
530.53	83.8777
530.66	83.4081
530.79	83.3118
530.91	83.2166
531.04	83.2630
531.17	83.0726
531.30	83.3100
531.42	82.8746
531.55	83.1381
531.68	83.3132
531.81	83.2936
531.93	83.4559
532.06	83.7704
532.19	83.4430
532.31	83.1292
532.44	83.3739
532.57	83.2182
532.70	83.1655
532.82	83.0907
532.95	83.0948
533.08	83.0874
533.21	83.2757
533.33	83.4850
533.46	83.2402
533.59	83.5519
533.71	83.6051
533.84	83.5084
533.97	83.4219
534.10	83.7570
534.22	83.6035
534.35	83.1190
534.48	83.0601
534.61	83.1299
534.73	82.9891
534.86	82.6901
534.99	82.9535
535.11	82.9746
535.24	83.0573
535.37	83.4023
535.50	83.4572
535.62	83.2535
535.75	83.1674
535.88	82.8827
536.00	82.5753
536.13	82.7032
536.26	82.9888
536.39	82.7317
536.51	82.8777
536.64	83.0938
536.77	83.0610
536.89	82.8244
537.02	83.0669
537.15	82.9352
537.28	82.9750
537.40	82.7700
537.53	82.7659
537.66	82.8878
537.78	83.1190
537.91	83.0667
538.04	83.6645
538.17	83.5383
538.29	83.1047
538.42	82.9429
538.55	83.0993
538.67	82.7845
538.80	83.2886
538.93	83.3736
539.05	83.2536
539.18	82.9766
539.31	83.2116
539.44	82.8048
539.56	82.9286
539.69	83.2000
539.82	83.3271
539.94	82.6182
540.07	82.6601
540.20	82.6829
540.32	82.4222
540.45	82.0081
540.58	82.6687
540.71	82.9434
540.83	83.0577
540.96	82.8475
541.09	82.9579
541.21	83.0107
541.34	82.9408
541.47	82.7167
541.59	82.5798
541.72	82.7873
541.85	82.8976
541.98	82.8247
542.10	82.4857
542.23	82.8999
542.36	82.9589
542.48	82.7352
542.61	82.5843
542.74	83.0769
542.86	83.1880
542.99	83.0064
543.12	82.9788
543.24	82.9211
543.37	82.8546
543.50	82.6827
543.62	82.9262
543.75	82.8769
543.88	82.7864
544.01	82.5574
544.13	82.5530
544.26	82.3386
544.39	82.1292
544.51	82.1226
544.64	82.3893
544.77	82.2683
544.89	82.4311
545.02	82.2991
545.15	82.0902
545.27	81.9677
545.40	81.8988
545.53	81.8740
545.65	82.2256
545.78	82.4938
545.91	82.3655
546.03	82.6553
546.16	82.6021
546.29	82.4302
546.41	82.6684
546.54	82.6373
546.67	82.2623
546.79	82.4589
546.92	82.4016
547.05	82.2446
547.17	82.3084
547.30	82.6596
547.43	82.3073
547.56	82.4532
547.68	82.3770
547.81	82.4317
547.94	82.4055
548.06	82.2714
548.19	82.2907
548.32	82.4821
548.44	82.3972
548.57	82.0795
548.70	82.2461
548.82	82.2546
548.95	82.2930
549.08	82.0505
549.20	82.2674
549.33	82.4029
549.45	82.5220
549.58	82.1660
549.71	82.6911
549.83	82.5981
549.96	82.4176
550.09	82.1115
550.21	82.4160
550.34	82.2328
550.47	82.6422
550.59	82.6582
550.72	82.3267
550.85	82.2915
550.97	82.4192
551.10	81.8709
551.23	81.8231
551.35	82.3601
551.48	82.4424
551.61	82.0711
551.73	82.1400
551.86	82.2960
551.99	81.9263
552.11	81.6467
552.24	82.0154
552.37	82.2132
552.49	82.1267
552.62	82.3768
552.75	82.5601
552.87	82.3642
553.00	82.3354
553.12	82.2354
553.25	81.9886
553.38	81.8441
553.50	82.0456
553.63	81.8982
553.76	81.9887
553.88	82.2266
554.01	82.1644
554.14	81.8029
554.26	82.0529
554.39	82.0473
554.52	82.0837
554.64	82.1019
554.77	82.1796
554.89	81.9531
555.02	81.9243
555.15	81.7913
555.27	81.5450
555.40	81.7251
555.53	81.9542
555.65	81.8111
555.78	81.6182
555.91	82.0447
556.03	82.0822
556.16	81.7381
556.29	81.5966
556.41	81.9595
556.54	81.9466
556.66	81.4386
556.79	81.5352
556.92	82.0424
557.04	81.8220
557.17	81.6362
557.30	81.9982
557.42	81.8914
557.55	81.6203
557.67	81.5462
557.80	81.4475
557.93	81.6065
558.05	81.6649
558.18	81.4990
558.31	81.3614
558.43	81.4146
558.56	81.3339
558.68	81.2780
558.81	81.0404
558.94	81.3326
559.06	81.3804
559.19	81.2809
559.32	81.2443
559.44	81.5719
559.57	81.4322
559.69	81.1801
559.82	81.0722
559.95	81.3516
560.07	81.3297
560.20	81.1606
560.33	81.4893
560.45	81.2647
560.58	81.1901
560.70	81.2558
560.83	81.3810
560.96	81.0901
561.08	81.5483
561.21	81.7210
561.33	81.4202
561.46	81.5223
561.59	81.7114
561.71	81.5994
561.84	81.2237
561.97	81.6308
562.09	81.6488
562.22	81.4583
562.34	81.3754
562.47	81.5174
562.60	81.3956
562.72	81.1938
562.85	81.3003
562.97	81.2900
563.10	81.2512
563.23	81.0805
563.35	81.0659
563.48	80.9133
563.60	81.0828
563.73	81.1549
563.86	81.2670
563.98	81.4845
564.11	81.4114
564.23	81.2496
564.36	80.9973
564.49	81.0618
564.61	81.0227
564.74	81.0633
564.86	80.9958
564.99	80.9710
565.12	80.9175
565.24	80.8042
565.37	80.7975
565.49	80.8605
565.62	81.2453
565.75	80.7039
565.87	80.5958
566.00	80.9637
566.12	80.7357
566.25	80.5740
566.38	80.9709
566.50	81.0764
566.63	80.9560
566.75	81.2098
566.88	81.1181
567.01	81.2249
567.13	81.3825
567.26	81.1254
567.38	81.1308
567.51	81.0609
567.64	80.9404
567.76	80.8428
567.89	81.0519
568.01	80.8700
568.14	80.8923
568.26	81.0169
568.39	80.8933
568.52	80.8459
568.64	80.9434
568.77	80.9423
568.89	81.0059
569.02	81.1043
569.15	80.9654
569.27	80.7631
569.40	80.7666
569.52	80.6870
569.65	80.7354
569.77	80.9426
569.90	80.8241
570.03	80.9371
570.15	80.9704
570.28	81.1107
570.40	80.9735
570.53	81.1901
570.66	81.1531
570.78	81.2039
570.91	80.9070
571.03	80.9171
571.16	81.0217
571.28	80.9038
571.41	80.8669
571.54	80.8305
571.66	80.7669
571.79	80.7391
571.91	80.6632
572.04	80.3514
572.16	80.4582
572.29	80.4820
572.42	80.5133
572.54	80.4845
572.67	80.7540
572.79	80.7441
572.92	80.7612
573.04	80.8597
573.17	81.1401
573.29	80.7898
573.42	80.6445
573.55	80.6661
573.67	80.6235
573.80	80.5879
573.92	80.7096
574.05	80.7536
574.17	80.7696
574.30	80.8021
574.43	80.6355
574.55	80.8867
574.68	80.9829
574.80	81.0552
574.93	80.9939
575.05	81.0412
575.18	80.8404
575.30	80.6792
575.43	80.7037
575.56	80.6848
575.68	80.8070
575.81	80.7362
575.93	80.7849
576.06	80.7917
576.18	80.8103
576.31	80.3638
576.43	80.4562
576.56	80.5761
576.69	80.5974
576.81	80.5702
576.94	80.8558
577.06	80.9358
577.19	80.8407
577.31	80.5213
577.44	80.5359
577.56	80.4456
577.69	80.5535
577.82	80.9015
577.94	80.9215
578.07	80.6706
578.19	80.9795
578.32	80.9626
578.44	80.6321
578.57	80.8664
578.69	80.9542
578.82	80.6515
578.94	80.5312
579.07	80.5364
579.19	80.4374
579.32	80.6292
579.45	80.9188
579.57	80.9350
579.70	81.0687
579.82	80.9070
579.95	80.9121
580.07	80.6912
580.20	80.6697
580.32	80.6044
580.45	80.7918
580.57	80.6393
580.70	80.5681
580.82	80.9296
580.95	80.7225
581.08	80.7555
581.20	80.7304
581.33	80.8101
581.45	80.2618
581.58	80.6776
581.70	80.5555
581.83	80.4924
581.95	80.5752
582.08	80.8483
582.20	80.6797
582.33	80.8080
582.45	80.8121
582.58	80.7942
582.70	80.7899
582.83	80.7050
582.95	80.6601
583.08	80.6859
583.21	80.7630
583.33	81.0009
583.46	80.9660
583.58	80.8222
583.71	80.9410
583.83	80.8816
583.96	80.5939
584.08	80.5926
584.21	80.7974
584.33	80.9142
584.46	80.6740
584.58	80.4931
584.71	80.6424
584.83	80.7649
584.96	80.5261
585.08	80.6179
585.21	80.9122
585.33	80.8701
585.46	80.9422
585.58	81.1787
585.71	81.1813
585.83	81.2682
585.96	81.1815
586.08	80.8810
586.21	80.9311
586.33	80.9143
586.46	80.7719
586.59	80.6834
586.71	80.6160
586.84	80.5855
586.96	80.7493
587.09	80.4147
587.21	80.5574
587.34	80.8162
587.46	80.5556
587.59	80.5153
587.71	80.9955
587.84	81.0381
587.96	80.7195
588.09	80.7562
588.21	80.6543
588.34	80.5067
588.46	80.4944
588.59	80.7250
588.71	80.7874
588.84	80.5216
588.96	80.4540
589.09	80.5620
589.21	80.5904
589.34	80.5240
589.46	80.7843
589.59	81.0547
589.71	81.0585
589.84	80.9595
589.96	80.9500
590.09	80.9896
590.21	80.7476
590.34	80.8024
590.46	80.8301
590.59	80.7264
590.71	80.9602
590.84	80.8553
590.96	80.6704
591.09	80.7489
591.21	81.0885
591.34	80.6593
591.46	80.6926
591.59	80.5917
591.71	80.7258
591.83	80.5845
591.96	80.8708
592.08	80.9963
592.21	81.1727
592.33	81.1254
592.46	81.0560
592.58	80.8856
592.71	80.8649
592.83	80.6181
592.96	80.5610
593.08	80.7561
593.21	80.9851
593.33	81.0684
593.46	81.1599
593.58	81.0935
593.71	81.2278
593.83	80.9394
593.96	80.8734
594.08	81.0668
594.21	81.0625
594.33	80.9868
594.46	81.3340
594.58	81.2994
594.71	81.1959
594.83	80.7078
594.96	80.4890
595.08	80.4857
595.20	80.7061
595.33	80.3493
595.45	80.8523
595.58	81.1380
595.70	81.1073
595.83	80.8486
595.95	81.2623
596.08	81.3571
596.20	81.1400
596.33	81.1528
596.45	81.3779
596.58	81.2257
596.70	81.1298
596.83	81.0508
596.95	81.1318
597.08	80.9291
597.20	80.9010
597.32	80.8067
597.45	80.8159
597.57	80.6947
597.70	80.6695
597.82	80.8080
597.95	80.8495
598.07	80.9017
598.20	80.9901
598.32	80.9741
598.45	80.8290
598.57	80.9708
598.70	81.1003
598.82	80.8546
598.94	80.8634
599.07	81.0270
599.19	81.2514
599.32	80.9136
599.44	80.9588
599.57	81.0314
599.69	81.1388
599.82	80.5562
599.94	80.7231
600.07	80.9907
600.19	81.0871
600.31	80.6288
600.44	80.7714
600.56	80.9135
600.69	80.7887
600.81	80.7659
600.94	81.0118
601.06	80.9895
601.19	81.1521
601.31	80.9545
601.44	80.8705
601.56	80.9251
601.68	81.0825
601.81	80.6592
601.93	80.9609
602.06	81.1626
602.18	80.9895
602.31	80.8675
602.43	81.0931
602.56	81.0043
602.68	80.7530
602.80	81.1090
602.93	81.1912
603.05	81.1821
603.18	81.2633
603.30	81.4210
603.43	81.1791
603.55	81.1685
603.68	81.0936
603.80	80.9228
603.92	80.8165
604.05	81.0135
604.17	81.0017
604.30	80.9573
604.42	80.8058
604.55	80.8507
604.67	80.7476
604.79	80.7131
604.92	80.8282
605.04	81.0552
605.17	81.0823
605.29	80.8865
605.42	81.0373
605.54	80.9850
605.66	80.9186
605.79	80.7932
605.91	81.0575
606.04	80.9070
606.16	80.9698
606.29	81.1467
606.41	81.3965
606.53	81.2783
606.66	81.4608
606.78	81.5062
606.91	81.4153
607.03	81.4234
607.16	81.4257
607.28	81.2868
607.40	81.3602
607.53	81.4530
607.65	81.4324
607.78	81.2873
607.90	81.4815
608.03	81.3877
608.15	81.4616
608.27	81.4716
608.40	81.7906
608.52	81.5490
608.65	81.7462
608.77	81.4723
608.89	81.1280
609.02	81.1090
609.14	81.1287
609.27	81.0121
609.39	81.4456
609.52	81.7344
609.64	81.7491
609.76	81.7024
609.89	81.4315
610.01	81.2037
610.14	81.2852
610.26	81.0729
610.38	81.3661
610.51	81.6891
610.63	81.5821
610.76	81.4713
610.88	81.3953
611.01	81.2841
611.13	81.3372
611.25	81.4561
611.38	81.5660
611.50	81.7587
611.63	81.8585
611.75	81.7554
611.87	81.5273
612.00	81.4692
612.12	81.7785
612.25	81.7322
612.37	81.7320
612.49	81.7106
612.62	81.7636
612.74	81.5319
612.87	81.6558
612.99	81.5450
613.11	81.5564
613.24	81.4700
613.36	81.4516
613.49	81.3279
613.61	81.2572
613.73	81.5379
613.86	81.6237
613.98	81.5764
614.11	81.4635
614.23	81.5158
614.35	81.4433
614.48	81.4074
614.60	81.3850
614.72	81.5130
614.85	81.6643
614.97	81.7329
615.10	81.6679
615.22	81.6808
615.34	81.8018
615.47	81.7592
615.59	81.6463
615.72	81.8820
615.84	81.6117
615.96	81.4968
616.09	81.6375
616.21	81.6129
616.34	81.4218
616.46	81.8190
616.58	81.8084
616.71	81.6360
616.83	81.5663
616.95	81.5931
617.08	81.6240
617.20	81.7162
617.33	81.5738
617.45	81.7268
617.57	81.7922
617.70	81.6488
617.82	81.4656
617.95	81.6958
618.07	81.6449
618.19	81.5212
618.32	81.7248
618.44	82.0148
618.56	82.1949
618.69	82.0625
618.81	82.2206
618.94	82.1076
619.06	81.9478
619.18	81.8805
619.31	81.9053
619.43	81.6786
619.55	81.9492
619.68	82.0949
619.80	81.6654
619.92	81.6837
620.05	82.0289
620.17	82.0068
620.30	81.7935
620.42	82.1014
620.54	82.2856
620.67	82.1332
620.79	81.7137
620.91	81.7673
621.04	81.8106
621.16	81.9750
621.29	81.9670
621.41	82.1999
621.53	82.4388
621.66	82.3225
621.78	81.8923
621.90	82.1029
622.03	82.2433
622.15	82.1486
622.27	82.4029
622.40	82.6326
622.52	82.7264
622.64	82.6768
622.77	82.4576
622.89	82.4262
623.02	82.5226
623.14	82.3093
623.26	82.1665
623.39	82.4750
623.51	82.6521
623.63	82.5042
623.76	82.4672
623.88	82.6458
624.00	82.5158
624.13	82.3533
624.25	82.3216
624.37	82.1612
624.50	82.3570
624.62	82.5778
624.75	82.3659
624.87	82.6563
624.99	82.9189
625.12	82.2976
625.24	82.0989
625.36	82.2929
625.49	82.0789
625.61	81.8214
625.73	82.3321
625.86	82.3863
625.98	82.4587
626.10	82.4172
626.23	82.5460
626.35	82.4846
626.47	82.4378
626.60	82.3338
626.72	82.3511
626.84	82.5276
626.97	82.6390
627.09	82.4200
627.21	82.3479
627.34	82.7368
627.46	82.7625
627.58	82.4879
627.71	83.1003
627.83	83.0678
627.95	82.5067
628.08	82.4665
628.20	82.8301
628.32	82.6244
628.45	82.7842
628.57	83.0745
628.69	82.9015
628.82	82.8492
628.94	82.7964
629.06	82.7028
629.19	82.9310
629.31	83.0380
629.43	82.9092
629.56	82.6955
629.68	82.9128
629.80	82.8605
629.93	82.9317
630.05	82.9380
630.17	83.3200
630.30	83.1735
630.42	83.2300
630.54	83.4188
630.67	83.1917
630.79	83.1051
630.91	83.2216
631.04	83.1804
631.16	83.1269
631.28	83.5347
631.41	83.3551
631.53	83.1855
631.65	83.0180
631.78	82.8710
631.90	83.0082
632.02	82.9473
632.14	83.1166
632.27	83.3251
632.39	83.1052
632.51	82.9140
632.64	83.1694
632.76	83.1777
632.88	83.1903
633.01	83.4249
633.13	83.0030
633.25	83.1433
633.38	83.2520
633.50	83.2388
633.62	83.4114
633.75	83.6586
633.87	83.4830
633.99	83.5021
634.11	83.3273
634.24	83.2586
634.36	83.4189
634.48	83.2195
634.61	83.2718
634.73	83.4920
634.85	83.5600
634.98	83.6612
635.10	83.5913
635.22	83.4893
635.35	83.6986
635.47	83.6580
635.59	83.5130
635.71	83.7262
635.84	83.5850
635.96	83.4693
636.08	83.3742
636.21	83.3124
636.33	83.5451
636.45	83.8527
636.58	83.4881
636.70	83.6401
636.82	84.0426
636.94	83.8028
637.07	83.5147
637.19	83.7237
637.31	83.8576
637.44	83.6145
637.56	83.7393
637.68	83.8945
637.81	84.3325
637.93	84.0513
638.05	83.6476
638.17	83.7147
638.30	83.7714
638.42	83.3586
638.54	83.4684
638.67	83.8469
638.79	83.9204
638.91	83.9668
639.03	84.1214
639.16	84.2136
639.28	84.3452
639.40	84.0290
639.53	83.9760
639.65	84.0039
639.77	83.8317
639.89	83.6827
640.02	84.0260
640.14	83.7800
640.26	83.7914
640.39	83.9959
640.51	83.9362
640.63	83.7758
640.75	84.0934
640.88	84.0043
641.00	83.4891
641.12	83.7650
641.24	84.0402
641.37	83.5500
641.49	83.6217
641.61	84.0088
641.74	83.9906
641.86	83.6039
641.98	83.9318
642.10	83.9319
642.23	83.9374
642.35	83.6988
642.47	83.7166
642.60	83.9007
642.72	83.8461
642.84	83.8221
642.96	83.9141
643.09	84.1187
643.21	84.0795
643.33	84.0152
643.45	83.9078
643.58	84.0934
643.70	84.0990
643.82	84.1470
643.94	84.3198
644.07	84.5407
644.19	84.4183
644.31	84.5124
644.44	84.5278
644.56	84.5434
644.68	84.6172
644.80	84.7312
644.93	84.5651
645.05	84.5042
645.17	84.4412
645.29	84.3507
645.42	84.0234
645.54	83.9752
645.66	83.9967
645.78	83.9048
645.91	83.6953
646.03	84.0524
646.15	84.2257
646.27	84.2446
646.40	84.1932
646.52	84.5583
646.64	84.6924
646.76	84.5402
646.89	84.4412
647.01	84.4351
647.13	84.5840
647.25	84.4325
647.38	84.3986
647.50	84.7151
647.62	85.0663
647.74	84.6888
647.87	84.4308
647.99	84.5885
648.11	84.5721
648.23	84.2560
648.36	84.4321
648.48	84.7590
648.60	84.9868
648.72	84.5324
648.85	84.6992
648.97	84.7873
649.09	84.7458
649.21	84.5631
649.34	84.8489
649.46	84.9413
649.58	85.0833
649.70	84.9434
649.83	84.9221
649.95	84.9265
650.07	84.8578
650.19	84.5723
650.32	84.5882
650.44	84.6519
650.56	84.6650
650.68	84.7042
650.81	84.6170
650.93	84.7328
651.05	84.6013
651.17	84.6110
651.29	84.5478
651.42	84.8357
651.54	85.0219
651.66	85.0419
651.78	84.6247
651.91	84.7136
652.03	84.8010
652.15	84.6364
652.27	84.8760
652.40	85.3934
652.52	85.5585
652.64	85.0362
652.76	85.0312
652.88	84.9919
653.01	85.1579
653.13	84.8549
653.25	85.0591
653.37	85.0328
653.50	85.0808
653.62	84.5766
653.74	84.5279
653.86	84.7968
653.98	84.8655
654.11	84.8255
654.23	84.7980
654.35	84.9619
654.47	85.0026
654.60	85.2571
654.72	84.9649
654.84	85.3105
654.96	85.3874
655.08	85.3272
655.21	85.0228
655.33	85.2983
655.45	85.3532
655.57	85.1932
655.70	84.9072
655.82	84.9138
655.94	85.1753
656.06	84.9942
656.18	85.0280
656.31	85.3894
656.43	85.5470
656.55	85.3061
656.67	85.3044
656.79	85.5432
656.92	85.5772
657.04	85.2318
657.16	85.2980
657.28	85.3184
657.40	85.3486
657.53	85.1906
657.65	85.2229
657.77	85.2923
657.89	85.5859
658.01	85.3620
658.14	85.4186
658.26	85.7904
658.38	85.6777
658.50	85.1116
658.62	85.2169
658.75	85.1481
658.87	85.3130
658.99	85.3542
659.11	85.4765
659.23	85.5804
659.36	85.6719
659.48	85.4616
659.60	85.4770
659.72	85.7340
659.84	85.6697
659.97	85.2362
660.09	85.0103
660.21	85.1719
660.33	85.4243
660.45	85.3176
660.58	85.5045
660.70	85.8489
660.82	85.5632
660.94	85.1257
661.06	85.0872
661.19	85.4015
661.31	85.2819
661.43	85.2130
661.55	85.2340
661.67	85.4599
661.80	85.3064
661.92	85.2302
662.04	85.2282
662.16	85.5195
662.28	85.4031
662.40	85.3074
662.53	85.4286
662.65	85.3815
662.77	85.4126
662.89	85.5625
663.01	85.7080
663.14	85.5627
663.26	85.8946
663.38	85.7023
663.50	85.3373
663.62	85.3019
663.74	85.3965
663.87	85.1525
663.99	84.7888
664.11	85.0484
664.23	85.2104
664.35	85.0768
664.48	85.2845
664.60	85.8852
664.72	85.9455
664.84	85.6749
664.96	85.8596
665.08	85.7243
665.21	85.8813
665.33	85.7879
665.45	85.7871
665.57	85.7347
665.69	85.7955
665.81	85.5421
665.94	85.4083
666.06	85.4793
666.18	85.7044
666.30	85.5672
666.42	85.4386
666.54	85.6744
666.67	85.5823
666.79	85.3603
666.91	85.6256
667.03	85.7123
667.15	85.6940
667.27	85.9577
667.40	85.6853
667.52	85.5080
667.64	85.6716
667.76	85.4363
667.88	85.1536
668.00	85.3470
668.13	85.4451
668.25	85.3753
668.37	85.4061
668.49	85.7657
668.61	85.9713
668.73	85.9153
668.85	85.7718
668.98	86.0837
669.10	85.9294
669.22	85.5925
669.34	85.7699
669.46	85.7481
669.58	85.4551
669.71	85.5353
669.83	85.6630
669.95	85.5040
670.07	85.5183
670.19	85.8055
670.31	85.8302
670.43	85.8132
670.56	85.8120
670.68	86.0664
670.80	85.6446
670.92	85.5854
671.04	85.8230
671.16	85.9182
671.28	85.5901
671.41	85.9598
671.53	86.2206
671.65	85.7610
671.77	85.4714
671.89	85.7157
672.01	85.8993
672.13	85.5736
672.26	86.1021
672.38	86.2244
672.50	86.0570
672.62	85.7129
672.74	85.8592
672.86	85.6695
672.98	85.8022
673.11	85.6580
673.23	85.8198
673.35	85.7425
673.47	85.9721
673.59	85.8033
673.71	85.5879
673.83	85.4931
673.96	85.7110
674.08	85.3903
674.20	85.4420
674.32	85.8860
674.44	85.9460
674.56	85.5253
674.68	85.4650
674.80	85.6531
674.93	85.6599
675.05	85.4993
675.17	85.6074
675.29	85.8145
675.41	85.7377
675.53	85.7979
675.65	85.7848
675.77	85.9894
675.90	86.2079
676.02	85.9482
676.14	85.6024
676.26	85.8271
676.38	85.7318
676.50	85.5964
676.62	86.0743
676.74	86.3292
676.87	86.0832
676.99	86.0256
677.11	85.9593
677.23	85.7531
677.35	85.9368
677.47	86.1307
677.59	86.0729
677.71	86.0726
677.83	85.9531
677.96	85.8709
678.08	85.9766
678.20	86.1840
678.32	86.2083
678.44	85.9165
678.56	85.7365
678.68	85.7275
678.80	85.5982
678.93	85.4290
679.05	85.5495
679.17	85.6723
679.29	85.6303
679.41	85.6715
679.53	85.7196
679.65	85.9744
679.77	85.9637
679.89	85.7174
680.01	86.0479
680.14	86.3426
680.26	86.2802
680.38	86.2388
680.50	86.4654
680.62	86.1943
680.74	86.0634
680.86	86.1785
680.98	85.8952
681.10	85.9280
681.22	86.0676
681.35	86.1761
681.47	85.6208
681.59	85.9463
681.71	85.9716
681.83	85.5590
681.95	85.0621
682.07	85.4973
682.19	85.5157
682.31	85.1227
682.43	85.4402
682.56	85.7607
682.68	85.8004
682.80	85.6797
682.92	86.0196
683.04	86.0566
683.16	85.8412
683.28	85.8011
683.40	85.7575
683.52	85.7142
683.64	85.6282
683.76	85.8583
683.89	85.7262
684.01	85.8145
684.13	85.7960
684.25	85.6379
684.37	85.6129
684.49	85.5275
684.61	85.5877
684.73	85.7241
684.85	85.5517
684.97	85.6518
685.09	86.1392
685.21	85.8462
685.34	85.8260
685.46	86.1486
685.58	85.8721
685.70	85.8532
685.82	86.1987
685.94	86.1403
686.06	86.0681
686.18	86.2056
686.30	85.8729
686.42	85.9001
686.54	85.5558
686.66	85.5989
686.79	85.3492
686.91	85.4283
687.03	85.5616
687.15	85.9718
687.27	85.7590
687.39	86.0780
687.51	86.1187
687.63	85.8241
687.75	85.3927
687.87	85.7247
687.99	85.5567
688.11	85.3000
688.23	85.3654
688.35	85.7440
688.48	85.6422
688.60	85.6155
688.72	85.8451
688.84	85.9766
688.96	86.0655
689.08	85.6185
689.20	85.6923
689.32	85.8736
689.44	85.9472
689.56	85.7409
689.68	86.1133
689.80	86.1076
689.92	85.9187
690.04	85.7120
690.16	85.6602
690.28	85.9372
690.41	85.8782
690.53	85.6102
690.65	85.4559
690.77	85.5293
690.89	85.3119
691.01	85.4667
691.13	85.6217
691.25	85.8388
691.37	86.0708
691.49	85.6233
691.61	85.4576
691.73	85.7560
691.85	85.8168
691.97	85.3404
692.09	85.6570
692.21	85.6005
692.33	85.6266
692.45	85.4797
692.57	85.4439
692.70	85.7147
692.82	85.8870
692.94	85.6388
693.06	85.7831
693.18	86.2693
693.30	85.9298
693.42	85.9550
693.54	86.1223
693.66	86.2872
693.78	86.0406
693.90	86.2809
694.02	86.4670
694.14	86.4084
694.26	86.0122
694.38	85.9971
694.50	86.0698
694.62	85.9665
694.74	85.8305
694.86	85.8875
694.98	85.7592
695.10	85.7322
695.22	85.5783
695.34	85.6404
695.46	85.6090
695.58	85.8211
695.71	85.7609
695.83	85.5374
695.95	85.7254
696.07	85.9639
696.19	86.1075
696.31	85.8419
696.43	86.0677
696.55	86.0683
696.67	86.0160
696.79	85.9591
696.91	85.8855
697.03	85.9796
697.15	86.0517
697.27	85.7382
697.39	85.7100
697.51	86.0254
697.63	85.6849
697.75	85.5196
697.87	85.9207
697.99	85.8472
698.11	85.8572
698.23	86.1692
698.35	86.1313
698.47	86.1945
698.59	85.9473
698.71	85.9964
698.83	86.0238
698.95	86.0649
699.07	85.8173
699.19	86.1904
699.31	86.0791
699.43	86.1766
699.55	86.2173
699.67	86.3576
699.79	86.2689
699.91	86.2891
700.03	86.1396
700.15	86.0411
700.27	86.1503
700.39	86.0430
700.51	86.0885
700.63	85.9959
700.75	86.2297
700.87	86.0536
700.99	86.3611
701.11	86.3828
701.24	86.2890
701.36	86.0718
701.48	86.2187
701.60	85.7501
701.72	85.7723
701.84	86.1695
701.96	86.0571
702.08	85.7518
702.20	86.0390
702.32	86.1187
702.44	86.0929
702.56	86.3180
702.68	86.2326
702.80	86.2108
702.92	86.2651
703.04	86.2462
703.16	86.4222
703.28	86.7100
703.40	86.6730
703.52	86.4486
703.64	86.2907
703.76	86.0921
703.88	86.1095
704.00	86.0105
704.12	86.1455
704.24	86.1656
704.36	86.2969
704.48	86.1781
704.60	86.3435
704.72	86.0297
704.84	86.0051
704.96	86.0441
705.07	86.2268
705.19	86.1089
705.31	86.5379
705.43	86.5150
705.55	86.3602
705.67	86.5179
705.79	86.7459
705.91	86.5173
706.03	86.5451
706.15	86.6580
706.27	86.3663
706.39	86.3482
706.51	86.4522
706.63	86.4801
706.75	86.2481
706.87	86.3669
706.99	86.5546
707.11	86.5649
707.23	86.5859
707.35	86.5923
707.47	86.4207
707.59	86.2773
707.71	86.2221
707.83	86.3524
707.95	86.1681
708.07	86.2814
708.19	86.5510
708.31	86.5891
708.43	86.4170
708.55	86.7553
708.67	86.6539
708.79	86.2985
708.91	86.1590
709.03	86.3291
709.15	86.2607
709.27	86.3625
709.39	86.2997
709.51	86.3779
709.63	86.5555
709.75	86.4623
709.87	86.4619
709.99	86.6365
710.11	86.8884
710.23	86.2929
710.35	86.3056
710.47	86.2946
710.58	86.0222
710.70	85.7968
710.82	86.1096
710.94	86.1040
711.06	86.1888
711.18	86.0710
711.30	85.9102
711.42	85.8467
711.54	86.1888
711.66	86.0333
711.78	85.9850
711.90	86.3204
712.02	86.6441
712.14	86.1064
712.26	85.8516
712.38	86.2250
712.50	86.1696
712.62	85.9926
712.74	85.9097
712.86	86.3265
712.98	86.3354
713.10	86.0452
713.22	85.8539
713.34	86.1257
713.45	86.0341
713.57	85.8710
713.69	86.0086
713.81	86.2882
713.93	86.7751
714.05	86.5929
714.17	86.4921
714.29	86.7207
714.41	86.5223
714.53	86.1303
714.65	86.5013
714.77	86.3499
714.89	86.2141
715.01	86.2881
715.13	86.3259
715.25	86.2960
715.37	86.4959
715.49	86.4452
715.61	86.2544
715.72	86.3810
715.84	86.3635
715.96	86.3040
716.08	86.2274
716.20	86.4314
716.32	86.2919
716.44	86.1493
716.56	86.0315
716.68	86.1118
716.80	86.2586
716.92	86.3365
717.04	86.4210
717.16	86.8813
717.28	86.7967
717.40	86.5934
717.52	86.5256
717.63	86.4634
717.75	86.3674
717.87	86.5816
717.99	86.4103
718.11	86.3034
718.23	86.2332
718.35	86.4184
718.47	86.3188
718.59	86.6019
718.71	86.6226
718.83	86.9715
718.95	86.7509
719.07	86.7376
719.19	86.6071
719.30	86.6331
719.42	86.3642
719.54	86.3115
719.66	86.5277
719.78	86.5393
719.90	86.6377
720.02	86.5361
720.14	86.5695
720.26	86.3817
720.38	86.6819
720.50	86.4696
720.62	86.7799
720.74	86.6860
720.85	86.3457
720.97	86.2397
721.09	86.2903
721.21	86.1146
721.33	86.3108
721.45	86.6330
721.57	86.8359
721.69	86.6735
721.81	86.3905
721.93	86.4332
722.05	86.6317
722.16	86.3199
722.28	86.3390
722.40	86.2963
722.52	86.4354
722.64	86.1915
722.76	86.0612
722.88	86.4876
723.00	86.7617
723.12	86.8580
723.24	86.6704
723.36	86.6200
723.47	86.4700
723.59	86.4132
723.71	86.2701
723.83	86.5459
723.95	86.5517
724.07	86.1875
724.19	86.4330
724.31	86.5972
724.43	86.7518
724.55	86.3063
724.66	86.8386
724.78	86.8760
724.90	86.5135
725.02	86.2155
725.14	87.1027
725.26	86.9066
725.38	86.5942
725.50	86.5479
725.62	86.8394
725.74	86.9992
725.85	87.2137
725.97	86.1205
726.09	86.4805
726.21	86.6552
726.33	86.4039
726.45	86.2204
726.57	87.4845
726.69	87.1293
726.81	86.7937
726.92	86.5709
727.04	86.6553
727.16	86.7355
727.28	86.9607
727.40	86.5776
727.52	86.4549
727.64	86.4117
727.76	86.5240
727.88	86.4536
727.99	86.8052
728.11	87.0362
728.23	87.1018
728.35	86.9189
728.47	86.8182
728.59	87.0440
728.71	87.0567
728.83	86.8222
728.94	86.6693
729.06	86.7242
729.18	86.5512
729.30	86.2864
729.42	86.2372
729.54	86.4681
729.66	86.3712
729.78	86.3224
729.90	86.8249
730.01	87.0123
730.13	87.0613
730.25	87.0423
730.37	87.1669
730.49	86.9052
730.61	86.8437
730.73	86.7807
730.84	86.8483
730.96	86.9971
731.08	87.1725
731.20	86.7103
731.32	86.8054
731.44	86.9398
731.56	86.5531
731.68	86.3386
731.79	86.9334
731.91	86.6270
732.03	86.5655
732.15	86.7137
732.27	86.5137
732.39	86.6130
732.51	86.9763
732.62	86.7001
732.74	86.7972
732.86	87.1745
732.98	86.9820
733.10	86.4621
733.22	86.9296
733.34	86.7361
733.45	86.5864
733.57	86.5343
733.69	86.8424
733.81	86.7213
733.93	86.7795
734.05	86.7626
734.17	86.8743
734.28	87.1410
734.40	87.1286
734.52	86.8034
734.64	86.8769
734.76	87.1254
734.88	86.8248
735.00	86.3827
735.11	86.9248
735.23	87.1719
735.35	86.6650
735.47	86.7371
735.59	87.1334
735.71	86.8344
735.83	86.4756
735.94	86.6448
736.06	86.5523
736.18	86.5576
736.30	86.9869
736.42	87.1274
736.54	86.6290
736.65	86.7932
736.77	86.8932
736.89	86.0802
737.01	86.3656
737.13	87.0293
737.25	86.8050
737.36	86.5885
737.48	87.2314
737.60	86.8625
737.72	86.4996
737.84	86.7269
737.96	86.6862
738.08	86.8559
738.19	86.8579
738.31	87.2233
738.43	87.0924
738.55	87.3739
738.67	87.1398
738.79	87.0977
738.90	87.2242
739.02	87.4173
739.14	87.1481
739.26	86.9551
739.38	87.2222
739.50	87.0904
739.61	87.0252
739.73	87.0954
739.85	87.0505
739.97	87.2943
740.09	87.2990
740.20	87.1249
740.32	87.5051
740.44	87.7814
740.56	87.4457
740.68	87.4327
740.80	87.3515
740.91	87.0113
741.03	87.1351
741.15	86.9142
741.27	86.8691
741.39	86.8470
741.51	86.9571
741.62	86.8620
741.74	87.0799
741.86	87.0730
741.98	87.2786
742.10	87.1960
742.21	87.2841
742.33	86.9107
742.45	87.0081
742.57	86.9088
742.69	87.0433
742.80	86.9878
742.92	87.4215
743.04	87.0620
743.16	87.4361
743.28	87.4354
743.40	87.5278
743.51	87.4676
743.63	87.7914
743.75	87.4747
743.87	87.3199
743.99	87.1510
744.10	87.2618
744.22	87.1080
744.34	87.0185
744.46	87.3282
744.58	87.1110
744.69	87.0023
744.81	87.4594
744.93	87.3864
745.05	86.9692
745.17	87.3537
745.28	87.4259
745.40	87.2441
745.52	87.4464
745.64	87.8549
745.76	88.0292
745.87	87.8481
745.99	87.9249
746.11	88.0701
746.23	88.0793
746.35	87.2733
746.46	87.2203
746.58	86.9760
746.70	86.8839
746.82	86.8686
746.94	87.5823
747.05	87.9409
747.17	88.2682
747.29	87.8103
747.41	88.0385
747.53	87.9955
747.64	87.6513
747.76	87.1616
747.88	87.6987
748.00	87.5215
748.12	87.5045
748.23	87.5857
748.35	87.7943
748.47	87.9463
748.59	87.9759
748.70	87.9668
748.82	88.0963
748.94	88.0637
749.06	88.0248
749.18	87.6540
749.29	87.5867
749.41	87.6704
749.53	87.6617
749.65	87.7842
749.76	88.1312
749.88	87.9640
750.00	87.7151
750.12	87.8613
750.24	87.8246
750.35	87.4598
750.47	87.7075
750.59	87.6007
750.71	87.8790
750.82	87.8010
750.94	88.0107
751.06	87.9588
751.18	88.2066
751.30	87.7838
751.41	87.7509
751.53	87.8765
751.65	87.6448
751.77	87.4567
751.88	87.9171
752.00	87.5669
752.12	87.4434
752.24	87.6279
752.35	87.7008
752.47	87.1317
752.59	87.6660
752.71	87.3969
752.83	87.6671
752.94	87.6851
753.06	87.9053
753.18	87.7145
753.30	88.0130
753.41	87.7249
753.53	87.7768
753.65	88.0930
753.77	88.1492
753.88	88.0797
754.00	87.9332
754.12	88.2034
754.24	88.4594
754.35	88.1873
754.47	88.1719
754.59	88.5272
754.71	88.5069
754.82	87.8607
754.94	88.1125
755.06	88.2024
755.18	88.2283
755.29	87.9395
755.41	88.1883
755.53	88.2099
755.65	88.2291
755.76	87.7184
755.88	87.7884
756.00	88.0329
756.12	87.9579
756.23	87.4705
756.35	87.8359
756.47	88.1657
756.59	87.8543
756.70	88.0143
756.82	88.3502
756.94	88.3034
757.06	88.1366
757.17	88.4142
757.29	88.1221
757.41	88.3009
757.53	88.3504
757.64	88.1850
757.76	87.9349
757.88	88.1404
758.00	88.4441
758.11	88.4126
758.23	88.6018
758.35	88.5297
758.47	88.6060
758.58	88.3554
758.70	88.6652
758.82	88.4446
758.94	88.7875
759.05	88.8225
759.17	88.4545
759.29	88.2487
759.40	88.5105
759.52	88.1571
759.64	87.8604
759.76	88.2464
759.87	88.3621
759.99	88.5708
760.11	88.7466
760.23	88.8727
760.34	88.8879
760.46	88.8313
760.58	88.3830
760.70	88.3252
760.81	88.3988
760.93	88.4865
761.05	88.7786
761.16	89.1058
761.28	89.4258
761.40	89.1023
761.52	88.8874
761.63	88.6265
761.75	88.6269
761.87	88.3564
761.98	88.7714
762.10	88.7973
762.22	89.1110
762.34	88.8988
762.45	88.3518
762.57	88.5008
762.69	88.4825
762.81	88.5272
762.92	88.5320
763.04	88.7444
763.16	88.6140
763.27	88.6580
763.39	88.1146
763.51	88.2229
763.63	88.8361
763.74	88.7979
763.86	88.9187
763.98	88.8726
764.09	89.0770
764.21	88.8729
764.33	88.9012
764.44	88.8381
764.56	89.1294
764.68	89.1842
764.80	88.7422
764.91	88.8002
765.03	88.9238
765.15	89.0696
765.26	88.5367
765.38	88.8971
765.50	88.7562
765.62	88.5751
765.73	88.5936
765.85	88.7678
765.97	88.9794
766.08	89.1671
766.20	89.2062
766.32	88.8473
766.43	88.9956
766.55	88.8630
766.67	88.8035
766.79	88.9644
766.90	89.2439
767.02	89.4354
767.14	88.7292
767.25	88.6630
767.37	88.6773
767.49	88.3070
767.60	87.9138
767.72	88.6808
767.84	88.9280
767.95	88.7430
768.07	88.9774
768.19	89.2728
768.31	89.3016
768.42	89.1656
768.54	88.9730
768.66	88.9372
768.77	89.0444
768.89	88.9712
769.01	88.7004
769.12	88.9989
769.24	89.1959
769.36	89.1506
769.47	88.8385
769.59	88.9195
769.71	88.8617
769.82	88.9894
769.94	88.6799
770.06	89.1437
770.17	89.2108
770.29	89.0419
770.41	89.0598
770.53	89.2801
770.64	89.0490
770.76	89.0337
770.88	89.7670
770.99	89.7273
771.11	89.8929
771.23	89.7137
771.34	89.5723
771.46	89.1210
771.58	88.9055
771.69	88.5554
771.81	89.1452
771.93	89.0662
772.04	89.1328
772.16	89.1285
772.28	89.4492
772.39	89.0260
772.51	89.5791
772.63	89.6647
772.74	89.1340
772.86	89.2809
772.98	89.5022
773.09	89.1712
773.21	88.9405
773.33	89.6801
773.44	89.1902
773.56	88.8120
773.68	89.1045
773.79	89.2644
773.91	89.2562
774.03	89.1879
774.14	89.6691
774.26	89.8941
774.38	89.7343
774.49	89.4764
774.61	89.8215
774.73	89.6986
774.84	89.2249
774.96	89.4549
775.08	89.5274
775.19	89.3720
775.31	89.3939
775.43	89.6965
775.54	89.1521
775.66	89.4855
775.77	89.3251
775.89	89.0268
776.01	88.7857
776.12	89.5382
776.24	89.4983
776.36	89.5021
776.47	89.4826
776.59	89.7590
776.71	89.6489
776.82	89.4866
776.94	89.5031
777.06	90.0417
777.17	90.2305
777.29	89.9871
777.41	90.0063
777.52	89.9725
777.64	90.1148
777.75	89.8937
777.87	89.6700
777.99	89.5990
778.10	89.9624
778.22	89.7376
778.34	89.5175
778.45	89.8765
778.57	90.0613
778.69	89.5968
778.80	89.6217
778.92	89.9140
779.04	89.7993
779.15	89.4621
779.27	89.5628
779.38	89.5752
779.50	89.3716
779.62	89.8033
779.73	89.4166
779.85	89.8666
779.97	90.1044
780.08	89.9468
780.20	89.5194
780.31	90.2965
780.43	90.4487
780.55	89.9327
780.66	89.6243
780.78	90.0902
780.90	90.2134
781.01	90.0851
781.13	89.8216
781.25	90.5292
781.36	90.2671
781.48	89.5851
781.59	89.2901
781.71	90.0690
781.83	90.3691
781.94	89.9149
782.06	90.4246
782.18	91.2958
782.29	90.7615
782.41	90.1527
782.52	90.6203
782.64	90.7825
782.76	90.7525
782.87	90.4782
782.99	89.9344
783.10	90.1729
783.22	89.9434
783.34	89.1763
783.45	89.6735
783.57	90.0106
783.69	89.2241
783.80	89.0852
783.92	89.3457
784.03	89.2574
784.15	89.6739
784.27	90.1734
784.38	90.2615
784.50	90.3962
784.61	90.6334
784.73	90.8160
784.85	90.4861
784.96	90.3879
785.08	90.2193
785.19	90.4189
785.31	90.3760
785.43	90.3512
785.54	90.4075
785.66	90.1125
785.77	90.1832
785.89	89.9548
786.01	90.2321
786.12	89.9793
786.24	90.2065
786.35	89.9230
786.47	90.2058
786.59	90.1143
786.70	90.5272
786.82	90.4651
786.93	90.3156
787.05	90.1585
787.17	90.4543
787.28	90.1828
787.40	90.1402
787.51	90.5597
787.63	90.2550
787.75	89.8201
787.86	90.1373
787.98	90.3109
788.09	89.6973
788.21	89.8716
788.33	90.6469
788.44	90.4610
788.56	90.8121
788.67	91.0603
788.79	91.3993
788.91	91.3876
789.02	91.0387
789.14	90.5821
789.25	90.8732
789.37	90.6655
789.48	90.5540
789.60	90.8477
789.72	90.6603
789.83	90.8667
789.95	91.1753
790.06	90.4912
790.18	90.4076
790.30	90.5703
790.41	90.1231
790.53	89.9245
790.64	90.2468
790.76	90.5556
790.87	90.5560
790.99	90.6806
791.11	90.7306
791.22	90.5352
791.34	90.4126
791.45	90.6368
791.57	90.7099
791.68	90.0862
791.80	90.2594
791.92	90.5443
792.03	90.5472
792.15	90.5121
792.26	90.7673
792.38	90.7559
792.49	90.7504
792.61	90.9785
792.73	91.5099
792.84	93.3919
792.96	88.6129
793.07	89.0840
793.19	89.9345
793.30	90.0970
793.42	89.0697
793.54	93.0397
793.65	92.7357
793.77	92.1293
793.88	91.2892
794.00	90.7701
794.11	91.3348
794.23	91.3690
794.34	91.4047
794.46	90.5536
794.58	89.9623
794.69	90.9196
794.81	91.1158
794.92	89.6951
795.04	90.2033
795.15	90.6055
795.27	90.4093
795.39	90.0848
795.50	91.0876
795.62	91.5108
795.73	91.4371
795.85	90.5226
795.96	90.6186
796.08	90.6070
796.19	90.8065
796.31	91.0321
796.42	91.2745
796.54	91.4029
796.66	91.8762
796.77	91.0276
796.89	91.4234
797.00	91.8776
797.12	91.1997
797.23	90.4000
797.35	90.7568
797.46	90.1752
797.58	90.2457
797.69	90.6148
797.81	91.1279
797.93	91.5944
798.04	91.4566
798.16	91.6133
798.27	91.7254
798.39	91.7660
798.50	91.7579
798.62	91.2666
798.73	91.0260
798.85	90.8302
798.96	90.1044
799.08	89.7738
799.19	90.6170
799.31	91.0572
799.43	91.0992
799.54	91.1238
799.66	91.5516
799.77	92.2901
799.89	91.9101
800.00	91.3633
800.12	91.2052
800.23	91.3766
800.35	90.9603
800.46	90.4641
800.58	90.8934
800.69	91.5757
800.81	90.7479
800.92	90.7105
801.04	91.4537
801.16	91.6709
801.27	91.5922
801.39	92.1457
801.50	91.5571
801.62	91.0195
801.73	91.5090
801.85	91.3658
801.96	90.8959
802.08	91.8254
802.19	92.2482
802.31	91.1453
802.42	91.0449
802.54	91.7941
802.65	90.8621
802.77	91.3328
802.88	91.1964
803.00	91.6681
803.11	91.4868
803.23	91.6762
803.34	91.3548
803.46	91.6095
803.57	91.7734
803.69	91.2081
803.80	91.5295
803.92	91.2562
804.03	91.4254
804.15	91.0116
804.26	91.9495
804.38	91.7470
804.50	91.5697
804.61	91.7365
804.73	92.4573
804.84	91.9799
804.96	92.1787
805.07	92.2111
805.19	91.9687
805.30	91.4131
805.42	91.2610
805.53	91.2881
805.65	91.6689
805.76	91.8013
805.88	91.5009
805.99	91.8194
806.11	91.6275
806.22	91.4035
806.34	91.6730
806.45	91.5039
806.57	91.6750
806.68	91.5010
806.80	91.2023
806.91	91.4502
807.03	91.9794
807.14	91.7354
807.26	91.4583
807.37	92.1053
807.49	91.4056
807.60	90.6830
807.72	90.7958
807.83	91.4410
807.95	90.9935
808.06	90.9189
808.17	91.6599
808.29	91.2227
808.40	90.6468
808.52	90.3034
808.63	90.8694
808.75	90.4386
808.86	90.7063
808.98	90.9002
809.09	91.4668
809.21	91.0968
809.32	92.0182
809.44	91.7422
809.55	92.2839
809.67	91.7434
809.78	91.4444
809.90	91.0987
810.01	90.5467
810.13	90.5634
810.24	91.3472
810.36	91.8849
810.47	91.2166
810.59	91.2718
810.70	91.2826
810.82	91.0291
810.93	91.0546
811.05	91.5132
811.16	91.7857
811.27	90.4264
811.39	90.7194
811.50	91.6842
811.62	91.3074
811.73	91.4370
811.85	92.2823
811.96	91.9600
812.08	91.2008
812.19	91.6495
812.31	92.5102
812.42	92.6604
812.54	92.2262
812.65	92.0707
812.77	91.9559
812.88	91.4065
813.00	92.0685
813.11	92.6521
813.22	93.0272
813.34	92.2069
813.45	91.4292
813.57	91.3505
813.68	92.0928
813.80	92.3343
813.91	91.9694
814.03	93.1262
814.14	92.4287
814.26	91.2280
814.37	91.0000
814.49	92.2304
814.60	91.5132
814.71	92.1481
814.83	92.3909
814.94	91.6931
815.06	92.1481
815.17	93.3345
815.29	91.4940
815.40	91.7778
815.52	92.7793
815.63	91.9620
815.75	92.0682
815.86	93.4466
815.97	92.6886
816.09	91.7650
816.20	93.5227
816.32	92.5299
816.43	93.0079
816.55	92.0928
816.66	92.8962
816.78	91.7421
816.89	92.5180
817.00	92.8263
817.12	93.3438
817.23	92.8743
817.35	93.8079
817.46	91.7803
817.58	91.5379
817.69	92.5139
817.81	92.3534
817.92	90.9382
818.03	92.9465
818.15	92.9701
818.26	92.7173
818.38	97.0636
818.49	103.3724
818.61	83.4182
818.72	84.8210
818.83	91.6844
818.95	88.7229
819.06	81.4838
819.18	102.5815
819.29	100.3339
819.41	93.0412
819.52	91.7319
819.64	93.7872
819.75	93.9133
819.86	92.7464
819.98	93.2608
820.09	94.4826
820.21	92.3638
820.32	90.2087
820.44	92.9002
820.55	92.4291
820.66	91.3612
820.78	91.7466
820.89	93.7911
821.01	92.0221
821.12	93.9544
821.23	91.4599
821.35	91.2624
821.46	92.8522
821.58	94.4807
821.69	91.2420
821.81	92.9398
821.92	92.2807
822.03	92.6682
822.15	92.5036
822.26	92.7858
822.38	92.9826
822.49	94.0392
822.61	91.0199
822.72	90.2340
822.83	93.6020
822.95	92.8680
823.06	91.0694
823.18	91.8442
823.29	93.2031
823.40	95.4747
823.52	91.3520
823.63	93.6748
823.75	98.0039
823.86	93.2261
823.97	91.3096
824.09	96.3828
824.20	97.7486
824.32	93.4803
824.43	92.1011
824.55	92.5100
824.66	94.4546
824.77	89.9909
824.89	91.2015
825.00	94.2018
825.12	93.7615
825.23	95.3828
825.34	93.9626
825.46	93.2665
825.57	99.6488
825.69	96.5390
825.80	95.6859
825.91	96.8199
826.03	99.6744
826.14	93.5395
826.26	94.0482
826.37	90.7613
826.48	99.6756
826.60	95.5352
826.71	96.3053
826.83	89.0276
826.94	86.0409
827.05	84.3003
827.17	87.2052
827.28	91.4420
827.39	96.8494
827.51	100.4294
827.62	98.0017
827.74	103.1364
827.85	100.2562
827.96	81.3223
828.08	92.5514
828.19	123.8741
828.31	105.7453
828.42	91.9208
828.53	109.7605
828.65	16.9603
828.76	0.0000
828.87	0.0000
828.99	0.0000
