Wavelength (nm)	Reflectance (%)
377.35	0.0000
377.48	0.0000
377.62	0.0000
377.75	72.6809
377.88	0.0000
378.02	94.9524
378.15	200.0000
378.28	200.0000
378.41	25.7778
378.55	200.0000
378.68	0.0000
378.81	200.0000
378.95	200.0000
379.08	200.0000
379.21	200.0000
379.35	50.1935
379.48	140.2326
379.61	152.2483
379.74	86.1976
379.88	0.0000
380.01	27.1031
380.14	51.8360
380.28	2.2222
380.41	0.0000
380.54	79.9679
380.68	78.6066
380.81	31.5182
380.94	16.1329
381.07	44.7564
381.21	51.1707
381.34	0.0000
381.47	12.1445
381.61	76.6039
381.74	57.7029
381.87	0.0000
382.00	47.5911
382.14	74.7431
382.27	12.5893
382.40	0.0000
382.54	49.4592
382.67	59.6240
382.80	24.7720
382.93	47.9719
383.07	57.4276
383.20	51.4457
383.33	74.8959
383.47	33.3230
383.60	29.6296
383.73	56.1605
383.86	50.6866
384.00	5.1737
384.13	41.0988
384.26	49.8254
384.40	19.2146
384.53	5.0631
384.66	23.4278
384.79	42.8848
384.93	35.8809
385.06	16.1465
385.19	20.2588
385.33	24.4189
385.46	2.5202
385.59	14.9163
385.72	51.2392
385.86	43.2343
385.99	43.4230
386.12	45.1331
386.25	16.9273
386.39	23.2447
386.52	38.4591
386.65	30.0557
386.79	8.7126
386.92	42.8597
387.05	51.7192
387.18	27.6133
387.32	20.8093
387.45	60.2229
387.58	50.7710
387.71	32.1348
387.85	37.5007
387.98	36.6829
388.11	37.4754
388.25	24.2043
388.38	15.3711
388.51	26.4954
388.64	50.0471
388.78	50.4011
388.91	23.3209
389.04	44.3697
389.17	38.4579
389.31	2.6596
389.44	0.0000
389.57	30.7854
389.70	29.0484
389.84	35.4097
389.97	38.3521
390.10	44.1751
390.24	45.7835
390.37	22.6131
390.50	19.2486
390.63	25.6199
390.77	18.2613
390.90	21.1351
391.03	40.0868
391.16	33.1371
391.30	36.6784
391.43	52.8267
391.56	32.0128
391.69	36.3543
391.83	55.9313
391.96	35.0011
392.09	25.9721
392.22	54.9937
392.36	56.0086
392.49	24.3164
392.62	26.2489
392.75	33.9426
392.89	26.3791
393.02	30.9152
393.15	18.7245
393.28	41.0651
393.42	31.0347
393.55	30.6806
393.68	18.6730
393.81	42.8972
393.95	42.7194
394.08	39.1714
394.21	30.9074
394.34	30.3905
394.48	32.9455
394.61	23.1949
394.74	29.1423
394.87	26.3286
395.01	44.0639
395.14	28.9487
395.27	16.3531
395.40	25.5590
395.54	33.4756
395.67	11.2648
395.80	24.9634
395.93	40.2202
396.07	38.7451
396.20	33.6579
396.33	36.7966
396.46	39.3677
396.59	45.7148
396.73	27.7682
396.86	26.3527
396.99	43.1687
397.12	58.0871
397.26	8.8179
397.39	15.0793
397.52	34.7625
397.65	28.5623
397.79	0.0000
397.92	43.8484
398.05	54.4732
398.18	30.5055
398.32	18.8926
398.45	25.8756
398.58	32.1763
398.71	25.1997
398.84	24.8406
398.98	25.9415
399.11	32.7560
399.24	28.2818
399.37	28.6500
399.51	33.8805
399.64	34.2244
399.77	31.2379
399.90	36.0344
400.03	26.5491
400.17	21.0470
400.30	24.6273
400.43	26.0952
400.56	20.2145
400.70	35.1572
400.83	41.0600
400.96	41.0490
401.09	32.5093
401.23	33.3735
401.36	27.1371
401.49	27.1081
401.62	30.0736
401.75	38.9463
401.89	32.5739
402.02	30.9690
402.15	30.6583
402.28	32.1129
402.41	35.5040
402.55	28.8084
402.68	28.1839
402.81	36.5981
402.94	40.8111
403.08	31.8541
403.21	36.5903
403.34	46.9335
403.47	37.4043
403.60	25.4778
403.74	33.9621
403.87	38.3112
404.00	36.9300
404.13	44.1923
404.26	44.0269
404.40	40.3539
404.53	46.7502
404.66	35.1724
404.79	30.3692
404.93	44.7078
405.06	43.2055
405.19	33.8221
405.32	37.1601
405.45	44.2408
405.59	44.7813
405.72	22.5125
405.85	33.2459
405.98	45.4802
406.11	40.6830
406.25	26.0776
406.38	48.6091
406.51	47.0154
406.64	42.1848
406.77	37.5331
406.91	44.8984
407.04	46.6148
407.17	45.0258
407.30	34.1291
407.43	32.9983
407.57	38.7249
407.70	39.5472
407.83	41.3037
407.96	37.1315
408.09	47.0473
408.23	48.6442
408.36	33.5362
408.49	29.8415
408.62	50.1906
408.75	45.5120
408.89	40.6547
409.02	47.7919
409.15	48.1923
409.28	51.5432
409.41	40.3243
409.55	40.2451
409.68	55.5424
409.81	53.7173
409.94	44.6653
410.07	61.4132
410.20	62.2485
410.34	54.5421
410.47	52.6416
410.60	57.1350
410.73	52.1739
410.86	54.2081
411.00	54.4862
411.13	57.8342
411.26	51.0795
411.39	52.7534
411.52	50.4381
411.66	53.7729
411.79	52.6912
411.92	58.3092
412.05	59.0948
412.18	54.9956
412.31	49.6971
412.45	60.4311
412.58	60.0462
412.71	52.5996
412.84	61.3070
412.97	68.7125
413.11	60.3931
413.24	50.3024
413.37	61.5860
413.50	63.9606
413.63	57.8653
413.76	58.2257
413.90	70.9760
414.03	68.9083
414.16	66.2349
414.29	59.8214
414.42	65.9218
414.56	64.4338
414.69	65.3682
414.82	62.9973
414.95	72.2937
415.08	66.0390
415.21	75.5779
415.35	71.9215
415.48	68.6203
415.61	80.1587
415.74	85.8159
415.87	64.7474
416.00	70.9234
416.14	82.9847
416.27	74.9587
416.40	70.9803
416.53	83.7463
416.66	87.3835
416.79	78.6181
416.93	77.5189
417.06	80.5092
417.19	82.5297
417.32	83.7066
417.45	79.5525
417.58	80.6041
417.72	80.4797
417.85	74.1845
417.98	72.1364
418.11	80.2584
418.24	79.9719
418.37	81.0837
418.51	79.4396
418.64	76.9892
418.77	82.9814
418.90	84.0510
419.03	78.4968
419.16	90.2591
419.29	98.2898
419.43	81.6484
419.56	80.0226
419.69	90.5845
419.82	88.0394
419.95	81.7360
420.08	85.7204
420.22	86.3159
420.35	83.7548
420.48	89.3626
420.61	84.7703
420.74	95.2496
420.87	100.3564
421.00	96.1082
421.14	85.0420
421.27	90.2542
421.40	90.0602
421.53	89.7662
421.66	94.0008
421.79	99.3136
421.93	103.8704
422.06	99.0702
422.19	95.5112
422.32	95.9209
422.45	100.0866
422.58	93.3482
422.71	91.6966
422.85	97.0188
422.98	98.9192
423.11	96.4877
423.24	98.8831
423.37	101.0895
423.50	98.8856
423.63	98.2827
423.77	96.3150
423.90	92.9602
424.03	95.0270
424.16	99.0456
424.29	99.9772
424.42	103.7198
424.55	105.8280
424.69	106.1924
424.82	107.0610
424.95	101.7262
425.08	100.3128
425.21	102.6060
425.34	101.2370
425.47	99.6045
425.60	103.2691
425.74	102.6387
425.87	100.4465
426.00	102.6257
426.13	101.6364
426.26	101.8477
426.39	97.4053
426.52	99.9856
426.66	104.3957
426.79	95.7360
426.92	91.8769
427.05	98.6847
427.18	99.5609
427.31	95.8628
427.44	100.8290
427.57	106.3906
427.71	104.0075
427.84	97.5216
427.97	94.9072
428.10	100.6789
428.23	106.3686
428.36	99.4263
428.49	98.6489
428.62	102.0279
428.76	103.8429
428.89	96.1136
429.02	96.6022
429.15	103.4667
429.28	103.0776
429.41	98.9118
429.54	96.1238
429.67	103.1114
429.81	105.0066
429.94	100.4259
430.07	94.3669
430.20	99.3200
430.33	100.4924
430.46	98.1605
430.59	104.3704
430.72	108.7806
430.85	109.7825
430.99	105.8384
431.12	101.9397
431.25	102.2578
431.38	105.7815
431.51	98.8607
431.64	99.1846
431.77	104.4352
431.90	105.1844
432.03	101.7328
432.17	103.9199
432.30	107.2970
432.43	104.9580
432.56	101.5338
432.69	99.1171
432.82	101.6148
432.95	100.8844
433.08	102.0361
433.21	102.2126
433.35	106.9056
433.48	105.8864
433.61	107.4098
433.74	104.8729
433.87	107.6030
434.00	106.2933
434.13	105.6951
434.26	102.3623
434.39	105.5552
434.53	103.6425
434.66	104.9208
434.79	100.5669
434.92	104.2837
435.05	103.8300
435.18	98.5054
435.31	96.2264
435.44	101.9573
435.57	103.5876
435.70	101.1145
435.84	99.0302
435.97	101.5852
436.10	102.5046
436.23	98.0019
436.36	97.8928
436.49	104.0974
436.62	100.9938
436.75	98.9295
436.88	99.8011
437.01	103.8867
437.14	104.0722
437.28	100.8322
437.41	98.2608
437.54	101.1975
437.67	103.3168
437.80	95.6613
437.93	97.1935
438.06	104.3364
438.19	104.0169
438.32	98.8936
438.45	102.3974
438.58	104.3102
438.72	102.5395
438.85	100.1521
438.98	99.4220
439.11	102.0413
439.24	102.5236
439.37	98.4513
439.50	100.3282
439.63	103.6685
439.76	105.4460
439.89	105.3081
440.02	104.3773
440.15	104.3271
440.29	105.8627
440.42	103.3093
440.55	99.7328
440.68	105.6138
440.81	106.6906
440.94	99.8027
441.07	100.4202
441.20	105.7352
441.33	102.6274
441.46	99.8370
441.59	103.8587
441.72	105.0505
441.85	103.0798
441.99	100.1509
442.12	99.6878
442.25	100.2194
442.38	102.8898
442.51	103.3088
442.64	105.9581
442.77	108.0990
442.90	108.9003
443.03	106.2396
443.16	103.1260
443.29	104.4271
443.42	102.3769
443.55	101.7057
443.68	101.6928
443.82	105.4205
443.95	102.6244
444.08	103.6536
444.21	102.3368
444.34	101.9748
444.47	101.0289
444.60	103.4841
444.73	100.7553
444.86	100.8866
444.99	101.6141
445.12	102.9148
445.25	100.3682
445.38	101.5546
445.51	103.5889
445.64	106.8050
445.78	100.2658
445.91	99.3365
446.04	103.7733
446.17	100.6742
446.30	95.9275
446.43	102.8441
446.56	105.5167
446.69	99.6870
446.82	98.2256
446.95	99.8492
447.08	99.9706
447.21	97.9568
447.34	98.8215
447.47	101.3798
447.60	98.7825
447.73	97.6368
447.86	99.2289
447.99	99.5046
448.13	100.6332
448.26	101.2338
448.39	99.3369
448.52	100.2015
448.65	101.3034
448.78	98.9022
448.91	101.6711
449.04	101.7458
449.17	100.3269
449.30	100.9409
449.43	99.2599
449.56	97.4664
449.69	101.4175
449.82	100.0228
449.95	97.4847
450.08	100.1708
450.21	100.8027
450.34	96.9281
450.47	98.9168
450.60	101.5197
450.73	102.7947
450.87	101.4298
451.00	96.4419
451.13	97.3465
451.26	95.6310
451.39	93.9168
451.52	94.3092
451.65	100.3185
451.78	101.2354
451.91	99.0531
452.04	96.8709
452.17	99.3630
452.30	99.8717
452.43	95.6584
452.56	100.1973
452.69	99.9661
452.82	97.9454
452.95	98.9213
453.08	98.2516
453.21	97.4532
453.34	99.3913
453.47	96.0177
453.60	93.6767
453.73	96.1267
453.86	94.3494
453.99	95.0571
454.12	97.3325
454.25	98.7557
454.38	97.7786
454.52	98.0408
454.65	98.1603
454.78	97.5870
454.91	96.4819
455.04	97.7855
455.17	94.8928
455.30	95.0053
455.43	97.7739
455.56	96.2947
455.69	94.1790
455.82	97.7586
455.95	96.9362
456.08	95.5116
456.21	97.2418
456.34	97.7831
456.47	97.5542
456.60	97.8878
456.73	96.1156
456.86	96.0206
456.99	96.9793
457.12	94.6085
457.25	93.3021
457.38	93.8734
457.51	93.5115
457.64	92.7985
457.77	94.0691
457.90	94.3541
458.03	94.3708
458.16	93.4066
458.29	94.0666
458.42	94.8322
458.55	95.8162
458.68	94.3089
458.81	91.2211
458.94	92.8999
459.07	94.1974
459.20	92.8752
459.33	91.7555
459.46	94.8281
459.59	94.7270
459.72	91.1945
459.85	90.7570
459.98	93.9919
460.11	95.9245
460.24	92.2837
460.37	93.4417
460.50	95.2381
460.63	95.0306
460.76	92.0312
460.89	93.0064
461.02	94.5895
461.15	94.3264
461.28	91.5412
461.41	94.0577
461.54	95.0741
461.67	93.0152
461.80	92.7375
461.93	93.7829
462.06	93.0356
462.19	93.7434
462.32	93.0843
462.45	93.1506
462.58	93.9889
462.71	94.7172
462.84	93.1453
462.97	93.7511
463.10	92.6772
463.23	92.8137
463.36	93.2391
463.49	93.1524
463.62	93.5938
463.75	94.3470
463.88	95.9969
464.01	91.6866
464.14	92.5757
464.27	93.6378
464.40	92.5688
464.53	90.6774
464.66	92.2912
464.79	92.4614
464.92	91.3195
465.05	91.5716
465.18	91.7269
465.31	93.2889
465.44	93.2558
465.57	90.6133
465.70	91.3998
465.83	93.1564
465.96	91.3981
466.09	90.1425
466.22	93.5667
466.35	93.8148
466.48	92.4200
466.61	92.7905
466.74	92.5427
466.87	91.5121
467.00	90.0417
467.13	90.8618
467.26	92.4437
467.39	93.2659
467.52	91.7487
467.65	92.8765
467.78	91.7760
467.91	90.5795
468.04	90.4611
468.17	92.9143
468.30	93.0338
468.43	92.5251
468.56	91.7339
468.69	93.0146
468.82	92.5503
468.95	92.5066
469.08	93.5794
469.21	93.0679
469.34	90.8971
469.47	91.8659
469.60	91.7963
469.73	90.6876
469.86	93.5555
469.99	94.9163
470.11	92.7392
470.24	92.3596
470.37	93.7032
470.50	93.1292
470.63	92.1007
470.76	91.5986
470.89	93.1395
471.02	93.3581
471.15	90.7554
471.28	90.0617
471.41	91.9978
471.54	91.9813
471.67	89.6938
471.80	90.6836
471.93	92.3277
472.06	93.0870
472.19	89.9949
472.32	90.4712
472.45	91.4000
472.58	90.9205
472.71	89.9657
472.84	92.1837
472.97	91.8275
473.10	92.4207
473.23	91.2561
473.36	90.4920
473.49	89.8155
473.62	90.1009
473.74	89.5202
473.87	91.2445
474.00	91.3696
474.13	90.9080
474.26	91.7028
474.39	91.4876
474.52	90.1459
474.65	91.4211
474.78	92.3440
474.91	90.4188
475.04	90.1518
475.17	90.9818
475.30	89.3987
475.43	88.9992
475.56	90.5115
475.69	91.4022
475.82	90.3821
475.95	91.3267
476.08	91.5392
476.21	91.5989
476.34	89.9720
476.46	91.1403
476.59	90.9084
476.72	91.2109
476.85	89.9584
476.98	90.0768
477.11	90.3445
477.24	89.7943
477.37	88.5192
477.50	89.6848
477.63	90.3175
477.76	89.7026
477.89	89.3181
478.02	89.5810
478.15	89.5952
478.28	90.0792
478.41	89.1085
478.54	89.9517
478.66	90.3691
478.79	90.3744
478.92	89.7005
479.05	90.5911
479.18	89.9622
479.31	90.1163
479.44	89.9344
479.57	89.8563
479.70	90.4852
479.83	91.2062
479.96	89.5228
480.09	89.0363
480.22	89.3741
480.35	88.7526
480.48	88.5709
480.60	89.2887
480.73	89.8968
480.86	89.9409
480.99	89.6302
481.12	88.4988
481.25	89.5823
481.38	89.5082
481.51	88.6743
481.64	88.7526
481.77	89.7732
481.90	89.3717
482.03	88.4695
482.16	88.9928
482.29	88.9675
482.41	89.1205
482.54	89.0647
482.67	89.4853
482.80	89.9916
482.93	89.5049
483.06	88.9641
483.19	89.2221
483.32	89.7001
483.45	88.9077
483.58	88.7702
483.71	88.5750
483.84	88.1645
483.97	87.8842
484.09	87.9873
484.22	88.7240
484.35	88.9275
484.48	88.7268
484.61	88.7032
484.74	88.9921
484.87	88.5953
485.00	88.8909
485.13	88.8774
485.26	89.2254
485.39	88.2426
485.52	87.9445
485.64	87.2709
485.77	87.7917
485.90	87.4395
486.03	88.4396
486.16	88.5210
486.29	88.5882
486.42	88.3635
486.55	87.8728
486.68	87.2726
486.81	87.7757
486.94	87.6823
487.06	87.0229
487.19	87.3335
487.32	87.6450
487.45	87.2560
487.58	87.9103
487.71	88.2292
487.84	88.0221
487.97	87.9885
488.10	88.4886
488.23	87.7876
488.35	88.1264
488.48	88.5147
488.61	88.6266
488.74	88.2751
488.87	87.9114
489.00	87.7843
489.13	87.9148
489.26	87.6700
489.39	87.4342
489.52	87.9962
489.64	87.6971
489.77	87.3984
489.90	87.1923
490.03	87.3836
490.16	87.5862
490.29	87.2599
490.42	87.4938
490.55	87.5509
490.68	88.0039
490.81	87.2188
490.93	87.5584
491.06	87.4581
491.19	87.2181
491.32	86.9963
491.45	87.4102
491.58	87.5556
491.71	87.7699
491.84	87.4610
491.97	87.0675
492.09	87.4828
492.22	87.1570
492.35	86.8761
492.48	87.6115
492.61	87.3423
492.74	86.9408
492.87	87.2314
493.00	86.8287
493.12	86.4805
493.25	86.9102
493.38	87.2834
493.51	86.8571
493.64	86.9363
493.77	87.0784
493.90	86.5798
494.03	86.1182
494.16	86.6630
494.28	87.2789
494.41	86.6496
494.54	86.7792
494.67	87.4638
494.80	87.1379
494.93	86.7428
495.06	87.4522
495.19	87.8885
495.31	87.5654
495.44	87.3042
495.57	87.3568
495.70	87.5710
495.83	87.4733
495.96	86.7448
496.09	86.5828
496.22	87.0628
496.34	86.8068
496.47	86.1891
496.60	86.2666
496.73	86.8878
496.86	86.0527
496.99	86.1252
497.12	86.3820
497.24	86.4452
497.37	86.2814
497.50	86.6294
497.63	85.8227
497.76	85.4744
497.89	86.4455
498.02	86.4864
498.15	86.1986
498.27	86.5063
498.40	86.9849
498.53	86.2664
498.66	86.5626
498.79	86.6254
498.92	86.7978
499.05	86.9159
499.17	86.3771
499.30	85.9512
499.43	86.4172
499.56	86.2109
499.69	85.9512
499.82	86.6128
499.95	86.8179
500.07	86.5148
500.20	85.9356
500.33	86.1226
500.46	86.3562
500.59	86.0874
500.72	85.7326
500.85	86.2770
500.97	86.6687
501.10	86.4480
501.23	85.9204
501.36	85.9645
501.49	86.2821
501.62	85.2966
501.75	85.5055
501.87	85.9107
502.00	85.8697
502.13	85.9017
502.26	86.2692
502.39	86.1272
502.52	86.1190
502.64	85.8286
502.77	85.5810
502.90	85.8922
503.03	85.7601
503.16	85.3519
503.29	85.7214
503.42	85.9988
503.54	85.9508
503.67	85.3947
503.80	86.3740
503.93	86.6372
504.06	86.0780
504.19	85.9607
504.31	86.2032
504.44	85.5847
504.57	85.6539
504.70	85.7256
504.83	85.6308
504.96	85.8041
505.08	85.2668
505.21	84.8992
505.34	85.2715
505.47	85.3603
505.60	85.4008
505.73	85.3331
505.85	85.5896
505.98	85.7613
506.11	85.6659
506.24	85.4931
506.37	85.7644
506.50	85.7800
506.62	85.5748
506.75	85.2589
506.88	85.6186
507.01	85.8793
507.14	85.7223
507.27	85.6351
507.39	86.0142
507.52	85.3498
507.65	85.6621
507.78	85.3911
507.91	85.1690
508.04	84.9834
508.16	85.3517
508.29	85.5373
508.42	85.9575
508.55	85.5496
508.68	85.7135
508.81	85.8348
508.93	85.3271
509.06	84.9880
509.19	85.5965
509.32	85.2389
509.45	85.1665
509.57	85.1068
509.70	85.2048
509.83	84.9995
509.96	85.1600
510.09	85.0602
510.22	85.2802
510.34	84.7407
510.47	84.8095
510.60	84.7067
510.73	84.6047
510.86	84.5810
510.98	84.8818
511.11	84.8161
511.24	85.1643
511.37	85.3443
511.50	85.3015
511.63	85.5828
511.75	85.6011
511.88	85.3797
512.01	85.2045
512.14	85.1528
512.27	84.9947
512.39	84.9001
512.52	84.9476
512.65	85.0374
512.78	84.8834
512.91	84.7588
513.03	84.6540
513.16	84.6344
513.29	84.4378
513.42	84.2092
513.55	84.5759
513.67	84.9477
513.80	84.7223
513.93	84.5979
514.06	84.9177
514.19	84.4559
514.31	84.4322
514.44	84.4356
514.57	84.2607
514.70	84.5027
514.83	84.8795
514.95	84.6626
515.08	84.7719
515.21	85.1579
515.34	85.1721
515.47	84.9963
515.59	85.0413
515.72	84.6812
515.85	84.8064
515.98	84.4536
516.11	84.2324
516.23	84.3545
516.36	84.8880
516.49	84.4933
516.62	84.2564
516.75	84.8791
516.87	84.8003
517.00	84.1700
517.13	84.4308
517.26	85.3154
517.39	84.8925
517.51	84.4080
517.64	85.0776
517.77	84.9377
517.90	84.4168
518.02	84.6822
518.15	84.8595
518.28	84.4240
518.41	84.3251
518.54	84.2790
518.66	84.1824
518.79	84.3949
518.92	84.4254
519.05	84.2551
519.18	84.2736
519.30	84.1006
519.43	84.0634
519.56	83.8301
519.69	84.2190
519.81	84.3973
519.94	84.3426
520.07	84.2774
520.20	84.4883
520.33	84.5100
520.45	84.3078
520.58	84.1819
520.71	84.2360
520.84	84.4746
520.96	84.4913
521.09	84.2071
521.22	84.1325
521.35	84.3045
521.48	84.2611
521.60	83.9628
521.73	83.6379
521.86	83.9246
521.99	83.9154
522.11	83.6148
522.24	83.8152
522.37	83.8691
522.50	84.0755
522.62	83.8219
522.75	84.0122
522.88	83.8439
523.01	84.1086
523.14	83.5305
523.26	83.9084
523.39	83.5749
523.52	83.6566
523.65	83.8826
523.77	84.1056
523.90	83.7001
524.03	83.9228
524.16	83.9239
524.28	83.7259
524.41	83.9462
524.54	84.0283
524.67	83.7921
524.79	83.4512
524.92	83.7551
525.05	83.4499
525.18	83.7180
525.31	83.3381
525.43	83.8892
525.56	84.2332
525.69	84.1785
525.82	83.7541
525.94	84.4919
526.07	84.4033
526.20	83.6061
526.33	83.5796
526.45	83.7182
526.58	83.6836
526.71	83.3522
526.84	83.7195
526.96	83.7406
527.09	83.7969
527.22	83.9431
527.35	83.6991
527.47	83.7430
527.60	83.6754
527.73	83.3870
527.86	83.0848
527.98	83.5409
528.11	83.0852
528.24	83.3931
528.37	83.4839
528.49	83.1841
528.62	83.4973
528.75	83.8660
528.88	83.6739
529.00	83.9769
529.13	84.4367
529.26	83.6869
529.39	83.3969
529.51	83.7598
529.64	83.6569
529.77	83.3870
529.90	83.7707
530.02	84.1922
530.15	83.9323
530.28	83.7634
530.40	83.7250
530.53	83.7457
530.66	83.2061
530.79	83.1226
530.91	83.0531
531.04	83.1574
531.17	83.0044
531.30	83.2629
531.42	82.7875
531.55	83.0376
531.68	83.1879
531.81	83.2012
531.93	83.3980
532.06	83.7979
532.19	83.5618
532.31	83.3456
532.44	83.6062
532.57	83.4546
532.70	83.3533
532.82	83.1863
532.95	83.0861
533.08	83.0126
533.21	83.1430
533.33	83.3449
533.46	83.0950
533.59	83.3981
533.71	83.4367
533.84	83.3409
533.97	83.2444
534.10	83.6131
534.22	83.5165
534.35	83.1032
534.48	83.0964
534.61	83.2062
534.73	83.0951
534.86	82.7923
534.99	83.0389
535.11	83.0522
535.24	83.1087
535.37	83.4532
535.50	83.5064
535.62	83.3277
535.75	83.2793
535.88	83.0868
536.00	82.7757
536.13	82.9465
536.26	83.2575
536.39	83.0079
536.51	83.1177
536.64	83.3358
536.77	83.2381
536.89	82.9105
537.02	83.0448
537.15	82.8217
537.28	82.8274
537.40	82.6631
537.53	82.6780
537.66	82.8451
537.78	83.1054
537.91	83.0242
538.04	83.5224
538.17	83.3778
538.29	82.9196
538.42	82.7054
538.55	82.8319
538.67	82.5098
538.80	82.9888
538.93	83.0544
539.05	82.9878
539.18	82.7588
539.31	83.0716
539.44	82.7235
539.56	82.9441
539.69	83.3070
539.82	83.5293
539.94	82.8913
540.07	83.0137
540.20	83.0296
540.32	82.6872
540.45	82.2094
540.58	82.8031
540.71	82.9991
540.83	83.0924
540.96	82.9096
541.09	83.0057
541.21	83.0532
541.34	82.9917
541.47	82.7543
541.59	82.5930
541.72	82.7879
541.85	82.8547
541.98	82.7021
542.10	82.2828
542.23	82.6368
542.36	82.6531
542.48	82.4176
542.61	82.2618
542.74	82.7743
542.86	82.9224
542.99	82.7936
543.12	82.8133
543.24	82.8184
543.37	82.7848
543.50	82.5717
543.62	82.7590
543.75	82.7098
543.88	82.6440
544.01	82.4662
544.13	82.6149
544.26	82.5297
544.39	82.3457
544.51	82.3083
544.64	82.5490
544.77	82.3042
544.89	82.3827
545.02	82.2772
545.15	82.2007
545.27	82.2098
545.40	82.3362
545.53	82.4605
545.65	82.8574
545.78	83.0663
545.91	82.8207
546.03	82.9566
546.16	82.7732
546.29	82.5172
546.41	82.6992
546.54	82.6371
546.67	82.2552
546.79	82.4338
546.92	82.3555
547.05	82.1686
547.17	82.2343
547.30	82.5617
547.43	82.2160
547.56	82.3537
547.68	82.2912
547.81	82.3664
547.94	82.4189
548.06	82.3230
548.19	82.4125
548.32	82.6529
548.44	82.5591
548.57	82.1637
548.70	82.2747
548.82	82.1875
548.95	82.1602
549.08	81.8570
549.20	82.0662
549.33	82.1800
549.45	82.3552
549.58	82.0459
549.71	82.6847
549.83	82.6677
549.96	82.5569
550.09	82.2103
550.21	82.4420
550.34	82.1111
550.47	82.3670
550.59	82.2750
550.72	81.9316
550.85	81.9303
550.97	82.1731
551.10	81.7572
551.23	81.8497
551.35	82.4472
551.48	82.5781
551.61	82.2031
551.73	82.2961
551.86	82.4073
551.99	82.0208
552.11	81.7091
552.24	82.0257
552.37	82.1353
552.49	81.9946
552.62	82.2070
552.75	82.3771
552.87	82.2164
553.00	82.2388
553.12	82.1654
553.25	81.9548
553.38	81.8263
553.50	82.0369
553.63	81.8795
553.76	82.0112
553.88	82.3000
554.01	82.2928
554.14	81.9736
554.26	82.2820
554.39	82.3126
554.52	82.3249
554.64	82.3105
554.77	82.3376
554.89	82.0564
555.02	81.9684
555.15	81.7993
555.27	81.5134
555.40	81.6561
555.53	81.8710
555.65	81.6740
555.78	81.4423
555.91	81.8920
556.03	81.9637
556.16	81.6223
556.29	81.5108
556.41	81.9084
556.54	81.8622
556.66	81.3100
556.79	81.3733
556.92	81.8569
557.04	81.5985
557.17	81.3759
557.30	81.7410
557.42	81.6245
557.55	81.3627
557.67	81.2778
557.80	81.1983
557.93	81.3696
558.05	81.4504
558.18	81.3095
558.31	81.2661
558.43	81.4065
558.56	81.3709
558.68	81.3768
558.81	81.1797
558.94	81.4462
559.06	81.4447
559.19	81.3151
559.32	81.2455
559.44	81.5226
559.57	81.3909
559.69	81.1713
559.82	81.0947
559.95	81.3725
560.07	81.3706
560.20	81.1468
560.33	81.4094
560.45	81.1341
560.58	81.0234
560.70	81.0453
560.83	81.1658
560.96	80.8702
561.08	81.2996
561.21	81.4550
561.33	81.1402
561.46	81.2494
561.59	81.4724
561.71	81.4240
561.84	81.1307
561.97	81.6184
562.09	81.6749
562.22	81.5062
562.34	81.4235
562.47	81.5195
562.60	81.3689
562.72	81.2028
562.85	81.3399
562.97	81.3508
563.10	81.3339
563.23	81.1802
563.35	81.1213
563.48	80.8958
563.60	81.0040
563.73	81.0465
563.86	81.1077
563.98	81.2916
564.11	81.2397
564.23	81.1197
564.36	80.8870
564.49	80.9711
564.61	80.9424
564.74	80.9755
564.86	80.9187
564.99	80.9583
565.12	80.9978
565.24	80.9728
565.37	81.0764
565.49	81.1742
565.62	81.5775
565.75	81.0466
565.87	80.9707
566.00	81.2976
566.12	81.0199
566.25	80.7359
566.38	80.9667
566.50	80.9056
566.63	80.6652
566.75	80.8750
566.88	80.7920
567.01	80.9831
567.13	81.2008
567.26	81.0138
567.38	81.1019
567.51	81.0945
567.64	80.9945
567.76	80.9467
567.89	81.1868
568.01	80.9774
568.14	81.0060
568.26	81.1166
568.39	80.9862
568.52	80.9339
568.64	81.0375
568.77	81.0213
568.89	81.0725
569.02	81.1273
569.15	80.9300
569.27	80.6938
569.40	80.6443
569.52	80.5452
569.65	80.5915
569.77	80.8259
569.90	80.7169
570.03	80.8681
570.15	80.9174
570.28	81.0497
570.40	80.9188
570.53	81.1149
570.66	81.0482
570.78	81.0879
570.91	80.8302
571.03	80.8512
571.16	81.0123
571.28	80.9961
571.41	81.0445
571.54	81.0114
571.66	80.9690
571.79	80.9268
571.91	80.7547
572.04	80.3553
572.16	80.4443
572.29	80.4303
572.42	80.4505
572.54	80.4584
572.67	80.7686
572.79	80.7839
572.92	80.8228
573.04	80.9339
573.17	81.2269
573.29	80.8862
573.42	80.7203
573.55	80.7365
573.67	80.6734
573.80	80.6128
573.92	80.7115
574.05	80.7329
574.17	80.7118
574.30	80.7350
574.43	80.5353
574.55	80.7342
574.68	80.8630
574.80	80.9780
574.93	80.9356
575.05	81.0421
575.18	80.8867
575.30	80.7142
575.43	80.7451
575.56	80.7631
575.68	80.8898
575.81	80.8871
575.93	80.9809
576.06	81.0020
576.18	80.9823
576.31	80.5123
576.43	80.5215
576.56	80.6125
576.69	80.6299
576.81	80.6439
576.94	80.9658
577.06	81.1304
577.19	81.0655
577.31	80.7397
577.44	80.7306
577.56	80.6144
577.69	80.6880
577.82	80.9982
577.94	81.0016
578.07	80.7498
578.19	81.0830
578.32	81.0471
578.44	80.7133
578.57	80.9586
578.69	81.0412
578.82	80.7225
578.94	80.5927
579.07	80.6026
579.19	80.4763
579.32	80.6448
579.45	80.8545
579.57	80.8276
579.70	80.9423
579.82	80.7876
579.95	80.7811
580.07	80.6124
580.20	80.6261
580.32	80.5559
580.45	80.7213
580.57	80.5686
580.70	80.5132
580.82	80.9045
580.95	80.7293
581.08	80.8245
581.20	80.8644
581.33	80.9766
581.45	80.4460
581.58	80.8687
581.70	80.7321
581.83	80.6526
581.95	80.6793
582.08	80.8727
582.20	80.6581
582.33	80.7512
582.45	80.6989
582.58	80.6786
582.70	80.6911
582.83	80.5886
582.95	80.4832
583.08	80.4772
583.21	80.5160
583.33	80.7340
583.46	80.7376
583.58	80.6756
583.71	80.8378
583.83	80.7860
583.96	80.4924
584.08	80.4459
584.21	80.6150
584.33	80.7339
584.46	80.5289
584.58	80.3671
584.71	80.5129
584.83	80.6007
584.96	80.3297
585.08	80.3649
585.21	80.6249
585.33	80.5738
585.46	80.6550
585.58	80.8830
585.71	80.8978
585.83	80.9803
585.96	80.9127
586.08	80.6488
586.21	80.7665
586.33	80.8466
586.46	80.7970
586.59	80.7573
586.71	80.7004
586.84	80.6287
586.96	80.7079
587.09	80.3139
587.21	80.4046
587.34	80.6456
587.46	80.3941
587.59	80.3727
587.71	80.8718
587.84	80.9831
587.96	80.7010
588.09	80.7791
588.21	80.7359
588.34	80.6184
588.46	80.6118
588.59	80.8803
588.71	81.0061
588.84	80.7860
588.96	80.7904
589.09	80.9054
589.21	80.9092
589.34	80.7428
589.46	80.8968
589.59	81.0348
589.71	80.9844
589.84	80.8488
589.96	80.8529
590.09	80.9065
590.21	80.7106
590.34	80.7749
590.46	80.7879
590.59	80.6757
590.71	80.9419
590.84	80.8579
590.96	80.7209
591.09	80.9025
591.21	81.3404
591.34	80.9695
591.46	81.0441
591.59	80.9398
591.71	81.0315
591.83	80.8294
591.96	81.0548
592.08	81.1289
592.21	81.3187
592.33	81.2689
592.46	81.1785
592.58	81.0032
592.71	80.9705
592.83	80.6655
592.96	80.5912
593.08	80.8053
593.21	80.9946
593.33	81.0545
593.46	81.1252
593.58	80.9824
593.71	81.0296
593.83	80.7391
593.96	80.6563
594.08	80.8207
594.21	80.8596
594.33	80.8528
594.46	81.2766
594.58	81.3567
594.71	81.3733
594.83	80.9756
594.96	80.8217
595.08	80.7976
595.20	80.9199
595.33	80.4915
595.45	80.9082
595.58	81.1031
595.70	81.0270
595.83	80.7942
595.95	81.1952
596.08	81.3006
596.20	81.0758
596.33	81.0873
596.45	81.2933
596.58	81.1729
596.70	81.0689
596.83	81.0113
596.95	81.1031
597.08	80.9281
597.20	80.9028
597.32	80.8488
597.45	80.9013
597.57	80.8260
597.70	80.7978
597.82	80.9192
597.95	80.9248
598.07	80.9172
598.20	80.9331
598.32	80.8746
598.45	80.7057
598.57	80.8038
598.70	80.8973
598.82	80.6531
598.94	80.6847
599.07	80.8689
599.19	81.1639
599.32	80.9566
599.44	81.1369
599.57	81.3170
599.69	81.5226
599.82	81.0364
599.94	81.2352
600.07	81.4875
600.19	81.5463
600.31	81.0466
600.44	81.1118
600.56	81.1721
600.69	80.9764
600.81	80.9044
600.94	81.1145
601.06	81.0389
601.19	81.1470
601.31	80.8997
601.44	80.7808
601.56	80.8019
601.68	80.9657
601.81	80.5901
601.93	80.9391
602.06	81.1688
602.18	81.0307
602.31	80.9145
602.43	81.1088
602.56	80.9725
602.68	80.6840
602.80	80.9633
602.93	81.0253
603.05	80.9738
603.18	81.0447
603.30	81.2198
603.43	81.0500
603.55	81.0564
603.68	81.0750
603.80	80.9935
603.92	80.9480
604.05	81.1776
604.17	81.2248
604.30	81.2033
604.42	81.1027
604.55	81.1764
604.67	81.0976
604.79	81.0917
604.92	81.2135
605.04	81.3764
605.17	81.3549
605.29	81.1079
605.42	81.1940
605.54	81.1078
605.66	81.0324
605.79	80.8924
605.91	81.1260
606.04	80.9302
606.16	80.9425
606.29	81.1068
606.41	81.3488
606.53	81.2969
606.66	81.5697
606.78	81.6839
606.91	81.6106
607.03	81.6421
607.16	81.5922
607.28	81.3699
607.40	81.3648
607.53	81.4227
607.65	81.3736
607.78	81.2332
607.90	81.4934
608.03	81.4576
608.15	81.5476
608.27	81.5599
608.40	81.8575
608.52	81.5266
608.65	81.6541
608.77	81.3496
608.89	80.9934
609.02	80.9854
609.14	81.0474
609.27	80.9608
609.39	81.4169
609.52	81.7601
609.64	81.8067
609.76	81.8031
609.89	81.6082
610.01	81.4223
610.14	81.4640
610.26	81.2426
610.38	81.5413
610.51	81.8287
610.63	81.6754
610.76	81.5544
610.88	81.4198
611.01	81.1813
611.13	81.1439
611.25	81.2376
611.38	81.3326
611.50	81.5791
611.63	81.7882
611.75	81.7609
611.87	81.5720
612.00	81.5335
612.12	81.8175
612.25	81.7499
612.37	81.7472
612.49	81.7259
612.62	81.7894
612.74	81.5784
612.87	81.6868
612.99	81.5448
613.11	81.5349
613.24	81.4488
613.36	81.4340
613.49	81.3371
613.61	81.3045
613.73	81.6045
613.86	81.6885
613.98	81.6214
614.11	81.4600
614.23	81.4553
614.35	81.3419
614.48	81.2687
614.60	81.2340
614.72	81.4066
614.85	81.6152
614.97	81.7354
615.10	81.6856
615.22	81.6977
615.34	81.7884
615.47	81.6979
615.59	81.5473
615.72	81.8206
615.84	81.5913
615.96	81.4930
616.09	81.6977
616.21	81.6938
616.34	81.4455
616.46	81.7926
616.58	81.7572
616.71	81.5170
616.83	81.4409
616.95	81.5381
617.08	81.6580
617.20	81.8502
617.33	81.8074
617.45	82.0352
617.57	82.1226
617.70	81.9385
617.82	81.6694
617.95	81.8128
618.07	81.6619
618.19	81.4406
618.32	81.6040
618.44	81.9143
618.56	82.1546
618.69	82.0908
618.81	82.3181
618.94	82.2334
619.06	82.0563
619.18	81.9315
619.31	81.9286
619.43	81.6974
619.55	81.9998
619.68	82.1988
619.80	81.8267
619.92	81.8448
620.05	82.1706
620.17	82.1158
620.30	81.8660
620.42	82.1555
620.54	82.3502
620.67	82.2215
620.79	81.8063
620.91	81.8551
621.04	81.9009
621.16	82.0527
621.29	82.0313
621.41	82.2805
621.53	82.5526
621.66	82.4158
621.78	82.0009
621.90	82.2032
622.03	82.3150
622.15	82.1757
622.27	82.4222
622.40	82.6013
622.52	82.6331
622.64	82.5339
622.77	82.2453
622.89	82.1422
623.02	82.2233
623.14	82.0575
623.26	81.9460
623.39	82.3254
623.51	82.5861
623.63	82.4761
623.76	82.4644
623.88	82.6888
624.00	82.5886
624.13	82.4256
624.25	82.4275
624.37	82.2507
624.50	82.4069
624.62	82.6019
624.75	82.3904
624.87	82.6346
624.99	82.9012
625.12	82.3226
625.24	82.1491
625.36	82.3594
625.49	82.1968
625.61	81.9549
625.73	82.4379
625.86	82.4767
625.98	82.5450
626.10	82.4989
626.23	82.6260
626.35	82.5720
626.47	82.5099
626.60	82.3699
626.72	82.3288
626.84	82.4780
626.97	82.6011
627.09	82.4152
627.21	82.3699
627.34	82.7937
627.46	82.8338
627.58	82.5283
627.71	83.1016
627.83	83.0417
627.95	82.4411
628.08	82.3597
628.20	82.7039
628.32	82.4936
628.45	82.6666
628.57	83.0157
628.69	82.9086
628.82	82.9063
628.94	82.9075
629.06	82.8508
629.19	83.0718
629.31	83.1796
629.43	83.0634
629.56	82.8288
629.68	83.0248
629.80	82.9733
629.93	83.0361
630.05	83.0455
630.17	83.4520
630.30	83.3517
630.42	83.4402
630.54	83.6267
630.67	83.3564
630.79	83.2245
630.91	83.2549
631.04	83.1337
631.16	83.0476
631.28	83.4555
631.41	83.2853
631.53	83.1603
631.65	83.0638
631.78	82.9547
631.90	83.1417
632.02	83.0911
632.14	83.2530
632.27	83.4013
632.39	83.1554
632.51	82.9103
632.64	83.1664
632.76	83.1833
632.88	83.2480
633.01	83.4957
633.13	83.0921
633.25	83.2296
633.38	83.3166
633.50	83.2586
633.62	83.4399
633.75	83.7053
633.87	83.5330
633.99	83.5819
634.11	83.4333
634.24	83.3403
634.36	83.4810
634.48	83.2556
634.61	83.2652
634.73	83.4407
634.85	83.4902
634.98	83.5479
635.10	83.4754
635.22	83.3736
635.35	83.5936
635.47	83.5325
635.59	83.3872
635.71	83.5707
635.84	83.3964
635.96	83.2600
636.08	83.1777
636.21	83.1136
636.33	83.3443
636.45	83.6767
636.58	83.3531
636.70	83.5582
636.82	84.0481
636.94	83.9033
637.07	83.6927
637.19	83.9258
637.31	84.0539
637.44	83.7463
637.56	83.7766
637.68	83.8182
637.81	84.1652
637.93	83.8121
638.05	83.3901
638.17	83.4820
638.30	83.6005
638.42	83.2590
638.54	83.4334
638.67	83.8488
638.79	83.9619
638.91	83.9864
639.03	84.1379
639.16	84.2224
639.28	84.3705
639.40	84.0621
639.53	84.0830
639.65	84.1444
639.77	84.0010
639.89	83.8573
640.02	84.1682
640.14	83.8556
640.26	83.8026
640.39	83.9357
640.51	83.8457
640.63	83.6874
640.75	84.0358
640.88	84.0043
641.00	83.5595
641.12	83.8387
641.24	84.1212
641.37	83.6165
641.49	83.6806
641.61	84.0820
641.74	84.1233
641.86	83.7957
641.98	84.1904
642.10	84.2341
642.23	84.2439
642.35	83.9963
642.47	83.9747
642.60	84.1013
642.72	83.9647
642.84	83.8845
642.96	83.9112
643.09	84.1005
643.21	84.0714
643.33	84.0563
643.45	83.9974
643.58	84.2672
643.70	84.2955
643.82	84.3520
643.94	84.5207
644.07	84.6997
644.19	84.4640
644.31	84.5034
644.44	84.4484
644.56	84.4138
644.68	84.4803
644.80	84.6805
644.93	84.5814
645.05	84.6206
645.17	84.6453
645.29	84.6414
645.42	84.3645
645.54	84.3278
645.66	84.3213
645.78	84.1788
645.91	83.8904
646.03	84.1435
646.15	84.2709
646.27	84.2543
646.40	84.2009
646.52	84.5841
646.64	84.7440
646.76	84.5996
646.89	84.5502
647.01	84.5402
647.13	84.6734
647.25	84.4901
647.38	84.4023
647.50	84.6338
647.62	84.9602
647.74	84.5767
647.87	84.3266
647.99	84.4994
648.11	84.4953
648.23	84.1843
648.36	84.3540
648.48	84.7117
648.60	84.9765
648.72	84.5540
648.85	84.7387
648.97	84.8472
649.09	84.8059
649.21	84.6331
649.34	84.9331
649.46	84.9693
649.58	85.0453
649.70	84.8300
649.83	84.7404
649.95	84.6899
650.07	84.6915
650.19	84.4874
650.32	84.5864
650.44	84.6993
650.56	84.7487
650.68	84.7594
650.81	84.6398
650.93	84.7080
651.05	84.5781
651.17	84.5872
651.29	84.5456
651.42	84.8712
651.54	85.1217
651.66	85.1523
651.78	84.7316
651.91	84.7764
652.03	84.7846
652.15	84.5321
652.27	84.7042
652.40	85.2134
652.52	85.4140
652.64	84.9437
652.76	84.9883
652.88	85.0235
653.01	85.2083
653.13	84.8982
653.25	85.1070
653.37	85.0927
653.50	85.1307
653.62	84.6078
653.74	84.5751
653.86	84.8463
653.98	84.9292
654.11	84.8815
654.23	84.8883
654.35	85.0354
654.47	85.0802
654.60	85.2809
654.72	84.9489
654.84	85.2263
654.96	85.2689
655.08	85.1241
655.21	84.7730
655.33	85.0146
655.45	85.0749
655.57	84.9130
655.70	84.6578
655.82	84.7086
655.94	85.0222
656.06	84.8506
656.18	84.8924
656.31	85.2772
656.43	85.4433
656.55	85.2109
656.67	85.2117
656.79	85.4688
656.92	85.5437
657.04	85.2302
657.16	85.2925
657.28	85.3567
657.40	85.4248
657.53	85.2307
657.65	85.2438
657.77	85.3273
657.89	85.5857
658.01	85.2939
658.14	85.3353
658.26	85.7272
658.38	85.6216
658.50	85.1128
658.62	85.2793
658.75	85.2446
658.87	85.3702
658.99	85.3595
659.11	85.3862
659.23	85.4360
659.36	85.4936
659.48	85.2840
659.60	85.3279
659.72	85.6352
659.84	85.6161
659.97	85.2171
660.09	85.0173
660.21	85.2066
660.33	85.4921
660.45	85.4017
660.58	85.6051
660.70	85.9728
660.82	85.6935
660.94	85.2246
661.06	85.1248
661.19	85.3801
661.31	85.1906
661.43	85.0451
661.55	85.0256
661.67	85.2652
661.80	85.1246
661.92	85.0941
662.04	85.1639
662.16	85.5073
662.28	85.4190
662.40	85.3897
662.53	85.5557
662.65	85.5312
662.77	85.6088
662.89	85.8155
663.01	85.9287
663.14	85.7338
663.26	86.0335
663.38	85.7803
663.50	85.3385
663.62	85.3049
663.74	85.4274
663.87	85.1950
663.99	84.8793
664.11	85.1871
664.23	85.3696
664.35	85.2338
664.48	85.4292
664.60	85.9762
664.72	86.0094
664.84	85.7113
664.96	85.8682
665.08	85.7046
665.21	85.8564
665.33	85.7347
665.45	85.7236
665.57	85.6870
665.69	85.8007
665.81	85.5805
665.94	85.4405
666.06	85.5006
666.18	85.7110
666.30	85.5176
666.42	85.3478
666.54	85.6229
666.67	85.5184
666.79	85.2736
666.91	85.5585
667.03	85.6554
667.15	85.5772
667.27	85.8345
667.40	85.5727
667.52	85.3998
667.64	85.5955
667.76	85.4338
667.88	85.2174
668.00	85.4513
668.13	85.5484
668.25	85.4647
668.37	85.4553
668.49	85.7852
668.61	85.9724
668.73	85.9228
668.85	85.7746
668.98	86.1024
669.10	85.9233
669.22	85.5839
669.34	85.8052
669.46	85.8547
669.58	85.6602
669.71	85.8832
669.83	86.1298
669.95	85.9972
670.07	86.0167
670.19	86.2527
670.31	86.1835
670.43	86.0411
670.56	85.9460
670.68	86.0852
670.80	85.5770
670.92	85.4460
671.04	85.6376
671.16	85.7278
671.28	85.4267
671.41	85.8210
671.53	86.1210
671.65	85.7212
671.77	85.4607
671.89	85.7051
672.01	85.9067
672.13	85.6125
672.26	86.1248
672.38	86.2112
672.50	86.0270
672.62	85.6519
672.74	85.7243
672.86	85.5296
672.98	85.6914
673.11	85.5975
673.23	85.7949
673.35	85.8004
673.47	86.0745
673.59	85.9473
673.71	85.7608
673.83	85.6983
673.96	85.8816
674.08	85.5441
674.20	85.5765
674.32	85.9974
674.44	86.0175
674.56	85.6465
674.68	85.6030
674.80	85.8032
674.93	85.8000
675.05	85.6582
675.17	85.7265
675.29	85.9195
675.41	85.7997
675.53	85.8093
675.65	85.7439
675.77	85.8845
675.90	86.0119
676.02	85.7055
676.14	85.3725
676.26	85.6060
676.38	85.5595
676.50	85.4687
676.62	85.9668
676.74	86.1690
676.87	85.8662
676.99	85.7342
677.11	85.6390
677.23	85.4191
677.35	85.6327
677.47	85.8528
677.59	85.8141
677.71	85.8199
677.83	85.6947
677.96	85.6031
678.08	85.7013
678.20	85.9095
678.32	85.9178
678.44	85.6292
678.56	85.4720
678.68	85.5275
678.80	85.4696
678.93	85.4044
679.05	85.6147
679.17	85.8073
679.29	85.7898
679.41	85.8807
679.53	85.9304
679.65	86.1885
679.77	86.1531
679.89	85.8654
680.01	86.0888
680.14	86.3107
680.26	86.1643
680.38	86.0654
680.50	86.2853
680.62	86.0526
680.74	85.9490
680.86	86.1050
680.98	85.8664
681.10	85.9357
681.22	86.1015
681.35	86.2297
681.47	85.6991
681.59	86.0713
681.71	86.1024
681.83	85.6990
681.95	85.2352
682.07	85.6761
682.19	85.6678
682.31	85.2977
682.43	85.6183
682.56	85.9297
682.68	85.9692
682.80	85.8058
682.92	86.0502
683.04	86.0173
683.16	85.7233
683.28	85.6357
683.40	85.6255
683.52	85.6535
683.64	85.6023
683.76	85.8455
683.89	85.7098
684.01	85.8037
684.13	85.7890
684.25	85.6796
684.37	85.7470
684.49	85.7360
684.61	85.7917
684.73	85.9098
684.85	85.6828
684.97	85.7004
685.09	86.1301
685.21	85.8030
685.34	85.7530
685.46	86.0644
685.58	85.7928
685.70	85.7426
685.82	86.0954
685.94	86.0402
686.06	85.9760
686.18	86.1274
686.30	85.8600
686.42	85.9185
686.54	85.6016
686.66	85.6720
686.79	85.4271
686.91	85.4595
687.03	85.5492
687.15	85.9317
687.27	85.6738
687.39	85.9547
687.51	85.9928
687.63	85.7063
687.75	85.3015
687.87	85.6933
687.99	85.5863
688.11	85.3703
688.23	85.4866
688.35	85.8874
688.48	85.7580
688.60	85.7047
688.72	85.9380
688.84	86.0200
688.96	86.0192
689.08	85.5293
689.20	85.5836
689.32	85.7385
689.44	85.8250
689.56	85.6911
689.68	86.1207
689.80	86.1726
689.92	86.0109
690.04	85.8690
690.16	85.8708
690.28	86.2013
690.41	86.1314
690.53	85.8606
690.65	85.6320
690.77	85.6241
690.89	85.3218
691.01	85.4405
691.13	85.5449
691.25	85.7519
691.37	86.0138
691.49	85.6174
691.61	85.4807
691.73	85.8461
691.85	85.9721
691.97	85.4936
692.09	85.7830
692.21	85.7266
692.33	85.7454
692.45	85.6042
692.57	85.6022
692.70	85.8830
692.82	86.0704
692.94	85.7964
693.06	85.8636
693.18	86.2633
693.30	85.8724
693.42	85.8078
693.54	85.9454
693.66	86.1507
693.78	85.9789
693.90	86.2647
694.02	86.5011
694.14	86.4493
694.26	86.0188
694.38	85.9516
694.50	86.0219
694.62	85.9393
694.74	85.8724
694.86	85.9869
694.98	85.8955
695.10	85.8976
695.22	85.8029
695.34	85.8947
695.46	85.9142
695.58	86.1675
695.71	86.1243
695.83	85.8362
695.95	85.9417
696.07	86.0871
696.19	86.1948
696.31	85.8838
696.43	86.1127
696.55	86.1143
696.67	86.0742
696.79	85.9821
696.91	85.8979
697.03	86.0050
697.15	86.1054
697.27	85.8035
697.39	85.7770
697.51	86.0634
697.63	85.6753
697.75	85.4608
697.87	85.8222
697.99	85.7366
698.11	85.7399
698.23	86.0069
698.35	85.9331
698.47	85.9750
698.59	85.7343
698.71	85.8562
698.83	85.9740
698.95	86.0700
699.07	85.8401
699.19	86.1668
699.31	85.9393
699.43	85.9593
699.55	85.9976
699.67	86.1598
699.79	86.1602
699.91	86.2940
700.03	86.2106
700.15	86.1304
700.27	86.2772
700.39	86.1425
700.51	86.1347
700.63	86.0053
700.75	86.1853
700.87	85.9155
700.99	86.1868
701.11	86.1701
701.24	86.0576
701.36	85.8443
701.48	86.0454
701.60	85.6072
701.72	85.6865
701.84	86.1083
701.96	86.0385
702.08	85.7471
702.20	86.0320
702.32	86.1355
702.44	86.1467
702.56	86.3612
702.68	86.2506
702.80	86.2096
702.92	86.2438
703.04	86.2300
703.16	86.4293
703.28	86.7762
703.40	86.8031
703.52	86.5782
703.64	86.3633
703.76	86.1030
703.88	86.0220
704.00	85.8367
704.12	85.9153
704.24	85.9312
704.36	86.0919
704.48	86.0425
704.60	86.2851
704.72	86.0712
704.84	86.1301
704.96	86.2279
705.07	86.4265
705.19	86.2832
705.31	86.6597
705.43	86.5791
705.55	86.3811
705.67	86.4961
705.79	86.7117
705.91	86.4804
706.03	86.5124
706.15	86.6123
706.27	86.3366
706.39	86.3034
706.51	86.3720
706.63	86.3814
706.75	86.1429
706.87	86.2221
706.99	86.4117
707.11	86.4553
707.23	86.4525
707.35	86.4178
707.47	86.2364
707.59	86.0711
707.71	85.9841
707.83	86.1084
707.95	85.9155
708.07	86.0081
708.19	86.2869
708.31	86.3366
708.43	86.2175
708.55	86.6749
708.67	86.7163
708.79	86.4307
708.91	86.3115
709.03	86.4471
709.15	86.2431
709.27	86.1872
709.39	85.9980
709.51	86.0411
709.63	86.2255
709.75	86.2168
709.87	86.2884
709.99	86.5233
710.11	86.7735
710.23	86.1829
710.35	86.1606
710.47	86.1465
710.58	85.9291
710.70	85.7714
710.82	86.1152
710.94	86.1774
711.06	86.3019
711.18	86.1973
711.30	86.0556
711.42	85.9907
711.54	86.2683
711.66	86.0368
711.78	85.8679
711.90	86.1181
712.02	86.4254
712.14	85.9520
712.26	85.8029
712.38	86.3172
712.50	86.3369
712.62	86.1740
712.74	86.0184
712.86	86.3273
712.98	86.2155
713.10	85.8253
713.22	85.5780
713.34	85.8813
713.45	85.8752
713.57	85.8065
713.69	86.0187
713.81	86.3504
713.93	86.8283
714.05	86.5947
714.17	86.4617
714.29	86.7080
714.41	86.5295
714.53	86.1681
714.65	86.5574
714.77	86.4007
714.89	86.2356
715.01	86.2770
715.13	86.2656
715.25	86.1973
715.37	86.3425
715.49	86.2382
715.61	85.9893
715.72	86.0926
715.84	86.0843
715.96	86.0721
716.08	86.0984
716.20	86.4368
716.32	86.4454
716.44	86.4150
716.56	86.3483
716.68	86.3816
716.80	86.4521
716.92	86.4329
717.04	86.4080
717.16	86.8381
717.28	86.7661
717.40	86.6026
717.52	86.5648
717.63	86.5569
717.75	86.4673
717.87	86.6837
717.99	86.4768
718.11	86.3334
718.23	86.2426
718.35	86.4212
718.47	86.3031
718.59	86.5737
718.71	86.5659
718.83	86.8881
718.95	86.6291
719.07	86.6120
719.19	86.5088
719.30	86.6224
719.42	86.3765
719.54	86.3716
719.66	86.6209
719.78	86.6559
719.90	86.7454
720.02	86.6897
720.14	86.7376
720.26	86.5655
720.38	86.8615
720.50	86.6337
720.62	86.9175
720.74	86.8378
720.85	86.5105
720.97	86.4370
721.09	86.5076
721.21	86.3525
721.33	86.5096
721.45	86.7762
721.57	86.9183
721.69	86.7303
721.81	86.4556
721.93	86.5590
722.05	86.8385
722.16	86.6209
722.28	86.7399
722.40	86.7637
722.52	86.9634
722.64	86.7916
722.76	86.6866
722.88	87.1125
723.00	87.3646
723.12	87.4068
723.24	87.1369
723.36	87.0337
723.47	86.8178
723.59	86.7058
723.71	86.5460
723.83	86.8101
723.95	86.7876
724.07	86.3891
724.19	86.6024
724.31	86.7105
724.43	86.7971
724.55	86.3361
724.66	86.8702
724.78	86.9285
724.90	86.5812
725.02	86.3364
725.14	87.2406
725.26	87.0618
725.38	86.7534
725.50	86.7167
725.62	86.9602
725.74	87.0520
725.85	87.1881
725.97	86.0240
726.09	86.3566
726.21	86.5487
726.33	86.3285
726.45	86.2468
726.57	87.5671
726.69	87.1867
726.81	86.8085
726.92	86.5537
727.04	86.5045
727.16	86.5152
727.28	86.7287
727.40	86.3369
727.52	86.2100
727.64	86.2130
727.76	86.3519
727.88	86.2829
727.99	86.6266
728.11	86.8401
728.23	86.9012
728.35	86.6779
728.47	86.5322
728.59	86.7462
728.71	86.7683
728.83	86.5185
728.94	86.3884
729.06	86.5331
729.18	86.4429
729.30	86.2485
729.42	86.3030
729.54	86.6324
729.66	86.5214
729.78	86.4681
729.90	86.9276
730.01	86.9941
730.13	86.9259
730.25	86.8924
730.37	86.9419
730.49	86.6609
730.61	86.6694
730.73	86.6774
730.84	86.7504
730.96	86.9628
731.08	87.1581
731.20	86.6845
731.32	86.7722
731.44	86.9272
731.56	86.5652
731.68	86.3980
731.79	87.0253
731.91	86.7462
732.03	86.7024
732.15	86.8382
732.27	86.6456
732.39	86.7558
732.51	87.1051
732.62	86.8215
732.74	86.9004
732.86	87.2274
732.98	87.0094
733.10	86.4753
733.22	86.9421
733.34	86.7791
733.45	86.6627
733.57	86.6320
733.69	86.9961
733.81	86.9072
733.93	86.9802
734.05	86.9898
734.17	87.1037
734.28	87.3280
734.40	87.2585
734.52	86.8788
734.64	86.8786
734.76	87.0508
734.88	86.6876
735.00	86.2220
735.11	86.7451
735.23	86.9619
735.35	86.4828
735.47	86.6116
735.59	87.0399
735.71	86.7388
735.83	86.4187
735.94	86.5689
736.06	86.3997
736.18	86.3194
736.30	86.7451
736.42	86.9029
736.54	86.4512
736.65	86.7210
736.77	86.9686
736.89	86.2313
737.01	86.5314
737.13	87.2199
737.25	86.9790
737.36	86.7145
737.48	87.3367
737.60	86.9727
737.72	86.5754
737.84	86.7920
737.96	86.7284
738.08	86.8276
738.19	86.7732
738.31	87.1104
738.43	86.9436
738.55	87.2396
738.67	87.0659
738.79	87.0433
738.90	87.1487
739.02	87.3236
739.14	86.9710
739.26	86.7087
739.38	86.9546
739.50	86.8529
739.61	86.7858
739.73	86.9119
739.85	86.9246
739.97	87.1960
740.09	87.1961
740.20	87.0895
740.32	87.5140
740.44	87.7925
740.56	87.4469
740.68	87.4455
740.80	87.3462
740.91	86.9628
741.03	87.0311
741.15	86.7956
741.27	86.7380
741.39	86.6754
741.51	86.7973
741.62	86.8126
741.74	87.1400
741.86	87.2336
741.98	87.5452
742.10	87.5206
742.21	87.5837
742.33	87.1344
742.45	87.1558
742.57	87.0088
742.69	87.1253
742.80	87.0712
742.92	87.5412
743.04	87.2060
743.16	87.5818
743.28	87.5723
743.40	87.6524
743.51	87.5500
743.63	87.8500
743.75	87.4997
743.87	87.3108
743.99	87.0915
744.10	87.1654
744.22	86.9557
744.34	86.8275
744.46	87.1081
744.58	86.8809
744.69	86.7911
744.81	87.2746
744.93	87.2209
745.05	86.7814
745.17	87.1341
745.28	87.1825
745.40	86.9861
745.52	87.1889
745.64	87.6281
745.76	87.8690
745.87	87.7160
745.99	87.8192
746.11	87.9887
746.23	88.0606
746.35	87.3059
746.46	87.3287
746.58	87.1511
746.70	87.0702
746.82	87.0007
746.94	87.6081
747.05	87.8329
747.17	88.0425
747.29	87.5570
747.41	87.7908
747.53	87.8250
747.64	87.6072
747.76	87.2394
747.88	87.8253
748.00	87.7044
748.12	87.6912
748.23	87.7172
748.35	87.8572
748.47	87.9795
748.59	87.9320
748.70	87.8546
748.82	87.9303
748.94	87.8606
749.06	87.7900
749.18	87.4587
749.29	87.4198
749.41	87.5423
749.53	87.5728
749.65	87.7139
749.76	88.0367
749.88	87.9016
750.00	87.6824
750.12	87.8392
750.24	87.8458
750.35	87.5210
750.47	87.7831
750.59	87.7127
750.71	88.0602
750.82	87.9761
750.94	88.2101
751.06	88.1300
751.18	88.3393
751.30	87.8686
751.41	87.8282
751.53	87.9178
751.65	87.7075
751.77	87.5253
751.88	87.9460
752.00	87.5924
752.12	87.4975
752.24	87.6758
752.35	87.7423
752.47	87.2332
752.59	87.7899
752.71	87.5105
752.83	87.8203
752.94	87.8888
753.06	88.1103
753.18	87.9518
753.30	88.2623
753.41	87.9422
753.53	87.9350
753.65	88.1791
753.77	88.1118
753.88	87.9745
754.00	87.7783
754.12	88.0400
754.24	88.3375
754.35	88.1594
754.47	88.2187
754.59	88.6561
754.71	88.6998
754.82	88.0888
754.94	88.3450
755.06	88.3901
755.18	88.3668
755.29	88.0253
755.41	88.2276
755.53	88.1850
755.65	88.2028
755.76	87.6564
755.88	87.6911
756.00	87.8687
756.12	87.7532
756.23	87.2316
756.35	87.6297
756.47	88.0067
756.59	87.7849
756.70	88.0681
756.82	88.4844
756.94	88.4344
757.06	88.2552
757.17	88.4978
757.29	88.1552
757.41	88.3040
757.53	88.3438
757.64	88.1665
757.76	87.9278
757.88	88.1354
758.00	88.4384
758.11	88.4604
758.23	88.6804
758.35	88.5993
758.47	88.6457
758.58	88.3618
758.70	88.5725
758.82	88.2864
758.94	88.6165
759.05	88.6470
759.17	88.2731
759.29	88.1264
759.40	88.4354
759.52	88.1040
759.64	87.8220
759.76	88.2209
759.87	88.2925
759.99	88.4636
760.11	88.6345
760.23	88.8177
760.34	88.9225
760.46	88.9845
760.58	88.6377
760.70	88.6259
760.81	88.6503
760.93	88.6185
761.05	88.7907
761.16	89.0047
761.28	89.2413
761.40	88.8919
761.52	88.7032
761.63	88.5154
761.75	88.6017
761.87	88.4417
761.98	88.9419
762.10	89.0531
762.22	89.4036
762.34	89.1920
762.45	88.5590
762.57	88.6372
762.69	88.5572
762.81	88.5058
762.92	88.4630
763.04	88.7105
763.16	88.6170
763.27	88.6585
763.39	88.1601
763.51	88.3036
763.63	88.9375
763.74	88.8985
763.86	89.0450
763.98	88.9867
764.09	89.1056
764.21	88.7905
764.33	88.7491
764.44	88.5998
764.56	88.8433
764.68	88.9441
764.80	88.5721
764.91	88.6737
765.03	88.8685
765.15	89.1084
765.26	88.6412
765.38	89.0238
765.50	88.8658
765.62	88.6369
765.73	88.5584
765.85	88.6285
765.97	88.7837
766.08	89.0017
766.20	89.0620
766.32	88.6632
766.43	88.7647
766.55	88.5797
766.67	88.4433
766.79	88.6167
766.90	89.0480
767.02	89.3817
767.14	88.8111
767.25	88.8591
767.37	88.9137
767.49	88.5007
767.60	88.1144
767.72	88.8578
767.84	89.0665
767.95	88.8249
768.07	89.0095
768.19	89.1816
768.31	89.1637
768.42	88.9902
768.54	88.8244
768.66	88.8261
768.77	89.0093
768.89	88.9078
769.01	88.6221
769.12	88.8611
769.24	88.9998
769.36	88.9445
769.47	88.7047
769.59	88.8334
769.71	88.8216
769.82	88.9953
769.94	88.6574
770.06	89.0741
770.17	89.1209
770.29	88.9354
770.41	88.9352
770.53	89.1720
770.64	88.9277
770.76	88.8967
770.88	89.5832
770.99	89.5015
771.11	89.6183
771.23	89.4468
771.34	89.3105
771.46	88.9636
771.58	88.8736
771.69	88.6423
771.81	89.2730
771.93	89.2298
772.04	89.2429
772.16	89.1255
772.28	89.3087
772.39	88.8184
772.51	89.2727
772.63	89.2774
772.74	88.7253
772.86	88.9164
772.98	89.2096
773.09	89.0482
773.21	89.0206
773.33	89.9346
773.44	89.5819
773.56	89.2473
773.68	89.4854
773.79	89.5587
773.91	89.4737
774.03	89.3203
774.14	89.7328
774.26	89.9058
774.38	89.7087
774.49	89.3983
774.61	89.7015
774.73	89.5732
774.84	89.1238
774.96	89.3428
775.08	89.4176
775.19	89.2972
775.31	89.3331
775.43	89.6511
775.54	89.1828
775.66	89.5970
775.77	89.4692
775.89	89.2391
776.01	89.0157
776.12	89.7505
776.24	89.6426
776.36	89.5574
776.47	89.4141
776.59	89.6276
776.71	89.4411
776.82	89.2540
776.94	89.2965
777.06	89.8826
777.17	90.0753
777.29	89.8682
777.41	89.9502
777.52	89.9722
777.64	90.1673
777.75	90.0312
777.87	89.8625
777.99	89.7530
778.10	90.0591
778.22	89.7489
778.34	89.3929
778.45	89.6202
778.57	89.7555
778.69	89.2806
778.80	89.3193
778.92	89.7092
779.04	89.7216
779.15	89.4723
779.27	89.6233
779.38	89.7177
779.50	89.5292
779.62	89.9464
779.73	89.5861
779.85	90.0550
779.97	90.2150
780.08	89.9998
780.20	89.4927
780.31	90.0885
780.43	90.0807
780.55	89.5201
780.66	89.1872
780.78	89.7106
780.90	90.0369
781.01	90.0876
781.13	89.9386
781.25	90.7524
781.36	90.5560
781.48	89.8561
781.59	89.5622
781.71	90.3077
781.83	90.5055
781.94	89.9161
782.06	90.3178
782.18	91.0824
782.29	90.5142
782.41	89.9485
782.52	90.4978
782.64	90.7036
782.76	90.7483
782.87	90.4820
782.99	89.9283
783.10	90.0952
783.22	89.8681
783.34	89.0686
783.45	89.6391
783.57	90.0688
783.69	89.4563
783.80	89.3880
783.92	89.6867
784.03	89.5376
784.15	89.8292
784.27	90.1702
784.38	90.1359
784.50	90.2265
784.61	90.4735
784.73	90.6892
784.85	90.4147
784.96	90.4119
785.08	90.2683
785.19	90.4360
785.31	90.4066
785.43	90.3357
785.54	90.3410
785.66	90.0571
785.77	90.1838
785.89	89.9667
786.01	90.2866
786.12	90.0442
786.24	90.2307
786.35	89.9021
786.47	90.1918
786.59	90.1273
786.70	90.5754
786.82	90.5593
786.93	90.4598
787.05	90.3005
787.17	90.5765
787.28	90.3380
787.40	90.2851
787.51	90.7012
787.63	90.4020
787.75	89.9461
787.86	90.1363
787.98	90.3045
788.09	89.6378
788.21	89.7505
788.33	90.5137
788.44	90.4033
788.56	90.7649
788.67	91.0931
788.79	91.5314
788.91	91.5576
789.02	91.1857
789.14	90.6739
789.25	90.8292
789.37	90.4787
789.48	90.2998
789.60	90.5646
789.72	90.4095
789.83	90.7213
789.95	91.1542
790.06	90.5597
790.18	90.5461
790.30	90.7086
790.41	90.2429
790.53	89.9830
790.64	90.2010
790.76	90.4294
790.87	90.3840
790.99	90.4213
791.11	90.4405
791.22	90.2812
791.34	90.2233
791.45	90.5754
791.57	90.8139
791.68	90.2869
791.80	90.5128
791.92	90.7795
792.03	90.6735
792.15	90.4938
792.26	90.6605
792.38	90.5858
792.49	90.5350
792.61	90.7169
792.73	91.2371
792.84	93.1156
792.96	88.3414
793.07	88.8327
793.19	89.7318
793.30	89.9145
793.42	88.8011
793.54	92.6512
793.65	92.2279
793.77	91.5301
793.88	90.6675
794.00	90.2493
794.11	90.9670
794.23	91.1656
794.34	91.2912
794.46	90.4929
794.58	89.9776
794.69	90.9556
794.81	91.1196
794.92	89.7502
795.04	90.2796
795.15	90.6051
795.27	90.3729
795.39	90.0694
795.50	91.0550
795.62	91.4664
795.73	91.4810
795.85	90.6452
795.96	90.7711
796.08	90.7989
796.19	91.0502
796.31	91.2051
796.42	91.3322
796.54	91.4114
796.66	91.8128
796.77	90.9159
796.89	91.3480
797.00	91.8764
797.12	91.2125
797.23	90.4559
797.35	90.8046
797.46	90.1165
797.58	90.0696
797.69	90.3191
797.81	90.6870
797.93	91.0363
798.04	90.8643
798.16	91.0361
798.27	91.2408
798.39	91.3729
798.50	91.4947
798.62	91.1930
798.73	91.1242
798.85	91.0175
798.96	90.3846
799.08	90.0821
799.19	90.8898
799.31	91.2105
799.43	91.1573
799.54	91.1044
799.66	91.4451
799.77	92.0484
799.89	91.5992
800.00	91.0406
800.12	90.9168
800.23	91.2158
800.35	90.9468
800.46	90.5976
800.58	91.0445
800.69	91.6658
800.81	90.7360
800.92	90.6458
801.04	91.3499
801.16	91.6335
801.27	91.5922
801.39	92.1261
801.50	91.4628
801.62	90.8363
801.73	91.2143
801.85	91.0421
801.96	90.5958
802.08	91.5443
802.19	92.0020
802.31	90.9676
802.42	90.9267
802.54	91.7631
802.65	91.0171
802.77	91.6542
802.88	91.6162
803.00	92.1685
803.11	91.9732
803.23	92.0097
803.34	91.4630
803.46	91.5335
803.57	91.5138
803.69	90.8545
803.80	91.1684
803.92	90.9746
804.03	91.1946
804.15	90.7541
804.26	91.5713
804.38	91.2679
804.50	91.0312
804.61	91.1549
804.73	91.9143
804.84	91.5672
804.96	91.8488
805.07	91.8967
805.19	91.6836
805.30	91.2075
805.42	91.1551
805.53	91.2719
805.65	91.7683
805.76	92.0614
805.88	91.8081
805.99	92.0761
806.11	91.8477
806.22	91.4954
806.34	91.5370
806.45	91.2307
806.57	91.2984
806.68	91.0276
806.80	90.8057
806.91	91.1685
807.03	91.7850
807.14	91.6890
807.26	91.5874
807.37	92.2932
807.49	91.6866
807.60	91.0147
807.72	91.1132
807.83	91.7323
807.95	91.3093
808.06	91.1969
808.17	91.9650
808.29	91.5389
808.40	90.9262
808.52	90.4886
808.63	90.9706
808.75	90.4163
808.86	90.5893
808.98	90.7180
809.09	91.2222
809.21	90.8319
809.32	91.6816
809.44	91.3299
809.55	91.7580
809.67	91.1225
809.78	90.6398
809.90	90.2612
810.01	89.7230
810.13	89.8066
810.24	90.6431
810.36	91.4292
810.47	90.8934
810.59	91.0183
810.70	91.1217
810.82	91.0487
810.93	91.1677
811.05	91.7600
811.16	92.1682
811.27	90.8812
811.39	91.0942
811.50	91.8419
811.62	91.2177
811.73	91.1695
811.85	91.9224
811.96	91.6118
812.08	90.9863
812.19	91.6011
812.31	92.5256
812.42	92.5825
812.54	92.0909
812.65	91.8811
812.77	91.7397
812.88	91.2638
813.00	92.1520
813.11	92.9334
813.22	93.4714
813.34	92.7101
813.45	91.9942
813.57	91.9914
813.68	92.7235
813.80	92.8665
813.91	92.4249
814.03	93.4542
814.14	92.5133
814.26	91.1449
814.37	90.9258
814.49	92.1519
814.60	91.3628
814.71	91.9505
814.83	92.1615
814.94	91.3652
815.06	91.8583
815.17	93.1686
815.29	91.5264
815.40	91.9298
815.52	93.0104
815.63	92.1802
815.75	92.1566
815.86	93.2707
815.97	92.3036
816.09	91.1700
816.20	92.6532
816.32	91.6415
816.43	92.2446
816.55	91.4976
816.66	92.5870
816.78	91.8264
816.89	92.7742
817.00	93.1890
817.12	93.8051
817.23	93.3225
817.35	94.1723
817.46	92.1235
817.58	91.8789
817.69	92.6753
817.81	92.3633
817.92	90.8417
818.03	92.7830
818.15	92.7472
818.26	92.6305
818.38	96.6076
818.49	102.3751
818.61	81.6741
818.72	82.2563
818.83	88.1875
818.95	85.3192
819.06	78.5967
819.18	100.6249
819.29	99.2653
819.41	92.9097
819.52	92.1662
819.64	94.4591
819.75	94.3968
819.86	92.9954
819.98	93.2883
820.09	94.0895
820.21	91.7871
820.32	89.8013
820.44	92.7270
820.55	92.4946
820.66	91.6334
820.78	91.9804
820.89	93.8779
821.01	92.1273
821.12	94.0913
821.23	91.7558
821.35	91.6979
821.46	93.3187
821.58	94.7119
821.69	91.2849
821.81	92.7832
821.92	92.1893
822.03	92.7140
822.15	92.6894
822.26	93.0303
822.38	93.2970
822.49	94.2296
822.61	91.1426
822.72	90.5102
822.83	93.8262
822.95	92.8016
823.06	90.9616
823.18	91.7223
823.29	92.7841
823.40	95.2271
823.52	91.5469
823.63	94.0516
823.75	98.3635
823.86	93.6447
823.97	91.6085
824.09	96.5779
824.20	97.8483
824.32	93.5265
824.43	92.2611
824.55	92.7336
824.66	94.7952
824.77	90.4032
824.89	92.0062
825.00	95.4700
825.12	95.0866
825.23	96.1919
825.34	94.3329
825.46	92.8164
825.57	98.0729
825.69	94.1494
825.80	93.1443
825.91	94.4188
826.03	97.5981
826.14	92.0689
826.26	93.5347
826.37	90.7364
826.48	100.1010
826.60	96.5408
826.71	97.6047
826.83	90.2416
826.94	87.5064
827.05	85.3652
827.17	87.5098
827.28	90.9780
827.39	95.4167
827.51	98.4210
827.62	96.3440
827.74	102.3409
827.85	101.2355
827.96	85.3033
828.08	98.4967
828.19	132.3118
828.31	115.6025
828.42	102.8119
828.53	118.3826
828.65	25.5033
828.76	0.0000
828.87	0.0000
828.99	0.0000
