Wavelength (nm)	Reflectance (%)
377.35	0.0000
377.48	0.0000
377.62	0.0000
377.75	59.1489
377.88	0.0000
378.02	140.0952
378.15	200.0000
378.28	200.0000
378.41	107.1111
378.55	200.0000
378.68	0.0000
378.81	200.0000
378.95	200.0000
379.08	200.0000
379.21	200.0000
379.35	0.0000
379.48	58.7442
379.61	96.1379
379.74	56.8379
379.88	0.0000
380.01	13.0309
380.14	42.8975
380.28	0.0000
380.41	0.0000
380.54	74.7976
380.68	74.8839
380.81	28.1320
380.94	13.5216
381.07	44.7179
381.21	52.7974
381.34	0.0000
381.47	16.8441
381.61	81.8046
381.74	61.3768
381.87	0.0000
382.00	46.8996
382.14	70.9057
382.27	6.7109
382.40	0.0000
382.54	44.0448
382.67	53.6532
382.80	18.9218
382.93	40.8351
383.07	49.7104
383.20	42.9984
383.33	66.5678
383.47	25.9441
383.60	24.3333
383.73	53.3827
383.86	50.8657
384.00	7.7234
384.13	45.7840
384.26	56.2573
384.40	26.4475
384.53	11.3891
384.66	29.4025
384.79	46.7937
384.93	37.1313
385.06	15.1696
385.19	18.2210
385.33	20.8551
385.46	0.0000
385.59	12.5504
385.72	49.3314
385.86	42.1317
385.99	43.1068
386.12	44.6742
386.25	17.4705
386.39	25.2074
386.52	40.8338
386.65	32.9304
386.79	12.5057
386.92	45.6652
387.05	53.1045
387.18	27.9577
387.32	20.4250
387.45	58.4457
387.58	48.5797
387.71	30.2135
387.85	35.8773
387.98	35.2358
388.11	36.9001
388.25	23.8978
388.38	14.6907
388.51	26.0079
388.64	50.0471
388.78	51.0267
388.91	26.4171
389.04	49.9807
389.17	44.9632
389.31	9.8085
389.44	0.7007
389.57	35.3512
389.70	31.2161
389.84	36.7131
389.97	38.3234
390.10	42.8686
390.24	44.0047
390.37	21.1389
390.50	16.3070
390.63	22.7828
390.77	15.5721
390.90	18.3292
391.03	37.4429
391.16	32.3685
391.30	36.3744
391.43	52.1163
391.56	29.9915
391.69	31.9360
391.83	48.0901
391.96	25.0718
392.09	15.5317
392.22	46.5660
392.36	50.7659
392.49	22.4442
392.62	25.9738
392.75	34.1467
392.89	26.5359
393.02	29.8346
393.15	17.1765
393.28	41.1701
393.42	33.4556
393.55	33.6493
393.68	22.1877
393.81	46.1720
393.95	44.5725
394.08	38.8098
394.21	29.4705
394.34	28.7076
394.48	31.2764
394.61	21.1403
394.74	27.0573
394.87	24.5394
395.01	41.0789
395.14	25.0924
395.27	12.3100
395.40	22.2612
395.54	30.0000
395.67	8.9763
395.80	23.4114
395.93	39.4513
396.07	37.8253
396.20	33.0087
396.33	35.8222
396.46	38.2852
396.59	44.8487
396.73	27.3322
396.86	26.1834
396.99	43.8052
397.12	59.4631
397.26	9.8893
397.39	16.2793
397.52	36.7893
397.65	31.4310
397.79	3.3345
397.92	49.2554
398.05	61.1879
398.18	37.5483
398.32	25.7483
398.45	32.2185
398.58	37.8878
398.71	30.4906
398.84	29.4686
398.98	29.8593
399.11	35.7583
399.24	29.8656
399.37	29.0865
399.51	34.1809
399.64	35.0732
399.77	32.6945
399.90	39.3625
400.03	31.0675
400.17	25.5539
400.30	27.8602
400.43	28.5896
400.56	21.3021
400.70	35.0457
400.83	40.4147
400.96	41.1293
401.09	32.3981
401.23	32.6142
401.36	26.2112
401.49	25.7301
401.62	28.1384
401.75	37.3277
401.89	32.1903
402.02	31.5437
402.15	32.4734
402.28	35.3479
402.41	39.0944
402.55	31.1077
402.68	29.2382
402.81	36.5322
402.94	39.0885
403.08	29.4865
403.21	35.0973
403.34	46.0092
403.47	36.6256
403.60	24.8923
403.74	33.6016
403.87	37.4574
404.00	36.0027
404.13	43.4152
404.26	43.6801
404.40	39.9843
404.53	46.8050
404.66	35.8595
404.79	31.6000
404.93	46.3778
405.06	45.2517
405.19	35.8822
405.32	38.8892
405.45	45.7827
405.59	46.4103
405.72	24.3218
405.85	34.9391
405.98	46.2901
406.11	40.7040
406.25	24.8060
406.38	46.0200
406.51	43.5148
406.64	39.2023
406.77	34.7876
406.91	42.5241
407.04	44.5371
407.17	43.6145
407.30	32.8475
407.43	32.0208
407.57	38.5003
407.70	40.5420
407.83	42.8174
407.96	39.3709
408.09	49.6462
408.23	51.3558
408.36	36.0850
408.49	32.5414
408.62	52.6340
408.75	48.1668
408.89	43.2191
409.02	50.0564
409.15	50.2210
409.28	53.3202
409.41	41.3689
409.55	40.7137
409.68	55.7385
409.81	53.2582
409.94	43.6452
410.07	60.2145
410.20	60.8533
410.34	52.7716
410.47	51.3541
410.60	56.1694
410.73	51.4348
410.86	53.7475
411.00	54.3719
411.13	57.3516
411.26	50.4593
411.39	52.1883
411.52	49.7504
411.66	52.8778
411.79	52.1278
411.92	58.0367
412.05	58.6132
412.18	54.6843
412.31	49.8865
412.45	60.9449
412.58	60.9141
412.71	54.3745
412.84	63.5933
412.97	70.9029
413.11	62.4138
413.24	52.0870
413.37	62.8249
413.50	64.9956
413.63	59.2554
413.76	60.0371
413.90	73.0913
414.03	71.3197
414.16	68.3765
414.29	61.2352
414.42	66.5327
414.56	64.4716
414.69	64.6079
414.82	62.0036
414.95	71.2203
415.08	64.8422
415.21	74.0571
415.35	70.0910
415.48	66.1046
415.61	77.3291
415.74	82.7204
415.87	61.4494
416.00	68.0283
416.14	80.7082
416.27	73.2806
416.40	70.2316
416.53	83.9982
416.66	88.2704
416.79	79.9040
416.93	78.9021
417.06	81.6787
417.19	83.2378
417.32	84.2831
417.45	80.2852
417.58	81.6404
417.72	82.0746
417.85	76.5126
417.98	75.0485
418.11	83.4122
418.24	83.5054
418.37	84.5782
418.51	82.4976
418.64	79.3972
418.77	84.9278
418.90	84.8761
419.03	78.5159
419.16	89.9368
419.29	97.9600
419.43	81.0739
419.56	80.0452
419.69	91.1826
419.82	88.9251
419.95	82.4375
420.08	86.4265
420.22	86.1505
420.35	82.6465
420.48	87.4597
420.61	82.5459
420.74	92.9213
420.87	98.5715
421.00	94.7596
421.14	84.0030
421.27	89.2747
421.40	88.9097
421.53	88.2142
421.66	92.3234
421.79	97.6773
421.93	102.6128
422.06	98.5741
422.19	95.6888
422.32	96.5964
422.45	101.0615
422.58	94.2699
422.71	92.1761
422.85	97.2841
422.98	99.0693
423.11	96.8297
423.24	99.5781
423.37	102.1761
423.50	100.3098
423.63	100.0384
423.77	98.1031
423.90	94.7738
424.03	96.6420
424.16	100.0933
424.29	100.1142
424.42	102.9515
424.55	103.8365
424.69	103.3127
424.82	103.8459
424.95	99.0690
425.08	98.4399
425.21	101.9006
425.34	101.5846
425.47	100.6838
425.60	104.3920
425.74	103.7184
425.87	101.4543
426.00	103.7516
426.13	102.7233
426.26	102.9278
426.39	98.4141
426.52	100.8191
426.66	104.9372
426.79	96.1663
426.92	92.1968
427.05	99.3367
427.18	100.5348
427.31	97.1585
427.44	102.3840
427.57	108.4173
427.71	105.7428
427.84	98.9252
427.97	95.6683
428.10	100.8985
428.23	105.8066
428.36	98.3272
428.49	97.1423
428.62	100.9221
428.76	103.3644
428.89	96.5960
429.02	98.1900
429.15	105.9860
429.28	105.8168
429.41	101.4990
429.54	98.2606
429.67	104.8021
429.81	106.1608
429.94	101.0419
430.07	94.5442
430.20	99.2893
430.33	99.8927
430.46	97.0955
430.59	103.0363
430.72	107.1817
430.85	107.6518
430.99	103.4891
431.12	99.6175
431.25	99.9852
431.38	103.8509
431.51	97.4486
431.64	98.2351
431.77	103.7841
431.90	104.6827
432.03	101.2099
432.17	103.3410
432.30	106.7998
432.43	104.7605
432.56	101.6921
432.69	99.4988
432.82	102.1512
432.95	101.1277
433.08	101.7010
433.21	101.3959
433.35	105.6981
433.48	104.4178
433.61	105.8686
433.74	103.3995
433.87	106.2953
434.00	105.1094
434.13	104.5031
434.26	101.3607
434.39	104.7066
434.53	102.8675
434.66	104.3231
434.79	100.3344
434.92	104.4864
435.05	104.5948
435.18	99.5914
435.31	97.6396
435.44	103.5534
435.57	105.0320
435.70	102.1977
435.84	99.9959
435.97	102.4339
436.10	103.2800
436.23	98.8920
436.36	98.8890
436.49	105.0784
436.62	101.7729
436.75	99.5614
436.88	100.1326
437.01	104.1540
437.14	104.4880
437.28	101.6540
437.41	99.5280
437.54	103.0208
437.67	105.5105
437.80	97.7758
437.93	99.0614
438.06	105.9540
438.19	105.5148
438.32	100.3901
438.45	104.1850
438.58	106.2187
438.72	104.4256
438.85	101.7563
438.98	100.5825
439.11	102.9794
439.24	103.1945
439.37	98.9071
439.50	100.6537
439.63	103.7319
439.76	104.9419
439.89	104.6974
440.02	103.4800
440.15	103.0160
440.29	104.4777
440.42	101.8841
440.55	98.0999
440.68	104.1536
440.81	105.4645
440.94	98.7219
441.07	99.5539
441.20	104.9950
441.33	101.9042
441.46	99.3686
441.59	103.7967
441.72	105.3661
441.85	103.7519
441.99	101.0642
442.12	100.6547
442.25	100.7251
442.38	102.8038
442.51	102.6887
442.64	104.7802
442.77	106.4905
442.90	107.3167
443.03	105.1100
443.16	102.4793
443.29	104.3393
443.42	102.7477
443.55	102.3064
443.68	101.9145
443.82	105.0888
443.95	101.7565
444.08	102.2829
444.21	100.6719
444.34	100.4807
444.47	99.9063
444.60	102.6583
444.73	100.1150
444.86	100.5049
444.99	101.3863
445.12	102.8714
445.25	100.5535
445.38	101.9336
445.51	103.8556
445.64	107.0177
445.78	100.1910
445.91	98.9694
446.04	103.2421
446.17	100.1165
446.30	95.2906
446.43	102.3474
446.56	105.3158
446.69	99.8824
446.82	98.7115
446.95	100.4937
447.08	100.7102
447.21	98.6081
447.34	99.2354
447.47	101.6735
447.60	99.1772
447.73	98.1968
447.86	99.9624
447.99	100.4845
448.13	101.8305
448.26	102.2505
448.39	99.8424
448.52	100.1246
448.65	100.3964
448.78	97.1171
448.91	99.4610
449.04	99.6242
449.17	98.5637
449.30	99.6634
449.43	98.5558
449.56	97.1536
449.69	101.2241
449.82	99.7488
449.95	97.3590
450.08	100.2835
450.21	101.1620
450.34	97.5068
450.47	99.6289
450.60	102.2309
450.73	103.4122
450.87	101.8650
451.00	96.7369
451.13	97.6124
451.26	95.7659
451.39	93.8346
451.52	94.1020
451.65	99.8263
451.78	100.3516
451.91	97.7956
452.04	95.2733
452.17	97.3151
452.30	97.6175
452.43	93.5118
452.56	98.1757
452.69	98.1955
452.82	96.5450
452.95	97.8865
453.08	97.3476
453.21	96.7431
453.34	98.8696
453.47	95.6349
453.60	93.2725
453.73	95.7195
453.86	93.8036
453.99	94.2731
454.12	96.4999
454.25	98.0683
454.38	97.2935
454.52	98.0132
454.65	98.6996
454.78	98.2948
454.91	97.1475
455.04	98.4782
455.17	95.2175
455.30	94.7485
455.43	97.2772
455.56	95.7663
455.69	93.5455
455.82	97.4143
455.95	96.9810
456.08	95.7662
456.21	97.4157
456.34	97.6775
456.47	96.8418
456.60	96.6276
456.73	94.3890
456.86	94.1797
456.99	95.4376
457.12	93.4864
457.25	92.6355
457.38	93.6576
457.51	93.5782
457.64	92.9528
457.77	94.4660
457.90	94.9174
458.03	95.1498
458.16	94.2388
458.29	94.8979
458.42	95.4959
458.55	96.3154
458.68	94.5716
458.81	91.4948
458.94	93.2107
459.07	94.5998
459.20	93.4041
459.33	92.4463
459.46	95.4615
459.59	95.3449
459.72	91.8289
459.85	91.2742
459.98	94.1810
460.11	95.9605
460.24	92.0881
460.37	93.0110
460.50	94.7127
460.63	94.6457
460.76	91.7799
460.89	93.0050
461.02	94.6898
461.15	94.5458
461.28	91.9415
461.41	94.5322
461.54	95.4854
461.67	93.5547
461.80	93.2896
461.93	94.0919
462.06	93.1989
462.19	93.8576
462.32	92.9424
462.45	92.8151
462.58	93.5356
462.71	94.1722
462.84	92.4827
462.97	93.1140
463.10	92.0208
463.23	92.2687
463.36	92.6952
463.49	92.5518
463.62	93.0346
463.75	94.0338
463.88	95.8856
464.01	91.8552
464.14	93.1540
464.27	94.3309
464.40	93.1401
464.53	91.2580
464.66	92.8696
464.79	93.0500
464.92	92.1429
465.05	92.6275
465.18	92.7386
465.31	94.1603
465.44	93.8497
465.57	91.0103
465.70	91.7847
465.83	93.6181
465.96	91.9963
466.09	90.9015
466.22	94.2673
466.35	94.3488
466.48	92.8087
466.61	93.0768
466.74	92.8175
466.87	91.9116
467.00	90.5775
467.13	91.6050
467.26	93.3672
467.39	94.1884
467.52	92.5609
467.65	93.6050
467.78	92.2485
467.91	90.7874
468.04	90.5910
468.17	93.0058
468.30	92.9749
468.43	92.4585
468.56	91.7528
468.69	93.0356
468.82	92.6425
468.95	92.7911
469.08	94.0009
469.21	93.4497
469.34	91.3017
469.47	92.1306
469.60	91.8421
469.73	90.5705
469.86	93.3754
469.99	94.5661
470.11	92.4097
470.24	92.0820
470.37	93.3792
470.50	92.7395
470.63	91.6855
470.76	91.0922
470.89	92.5563
471.02	92.7929
471.15	90.2916
471.28	89.8151
471.41	91.9327
471.54	92.0460
471.67	89.9052
471.80	90.9498
471.93	92.4377
472.06	93.1123
472.19	89.9688
472.32	90.3456
472.45	91.2147
472.58	90.8095
472.71	89.7963
472.84	92.0165
472.97	91.6552
473.10	92.2072
473.23	91.0246
473.36	90.3501
473.49	89.6868
473.62	90.0032
473.74	89.4600
473.87	91.1454
474.00	91.2245
474.13	90.7865
474.26	91.5546
474.39	91.3210
474.52	90.0289
474.65	91.3061
474.78	92.1485
474.91	90.2207
475.04	89.9955
475.17	90.8387
475.30	89.2994
475.43	89.0328
475.56	90.6109
475.69	91.4696
475.82	90.4372
475.95	91.3416
476.08	91.3517
476.21	91.2236
476.34	89.5465
476.46	90.5553
476.59	90.1801
476.72	90.4653
476.85	89.3012
476.98	89.4677
477.11	89.9842
477.24	89.7162
477.37	88.8399
477.50	90.3043
477.63	91.2047
477.76	90.6937
477.89	90.4053
478.02	90.5117
478.15	90.3206
478.28	90.5477
478.41	89.3795
478.54	89.9538
478.66	90.2731
478.79	90.2599
478.92	89.5239
479.05	90.2812
479.18	89.5999
479.31	89.6404
479.44	89.3260
479.57	89.2487
479.70	89.8981
479.83	90.6194
479.96	88.9187
480.09	88.4080
480.22	88.6884
480.35	88.0666
480.48	87.8676
480.60	88.5990
480.73	89.2495
480.86	89.3910
480.99	89.1634
481.12	88.1429
481.25	89.3052
481.38	89.3394
481.51	88.4614
481.64	88.5151
481.77	89.4510
481.90	89.0676
482.03	88.0873
482.16	88.6998
482.29	88.7508
482.41	89.1294
482.54	89.1605
482.67	89.7415
482.80	90.2709
482.93	89.7537
483.06	89.0024
483.19	89.1254
483.32	89.4214
483.45	88.5406
483.58	88.3811
483.71	88.2963
483.84	87.9955
483.97	87.8864
484.09	88.0803
484.22	88.8832
484.35	89.0575
484.48	88.7817
484.61	88.6083
484.74	88.7825
484.87	88.2605
485.00	88.4831
485.13	88.4663
485.26	88.8694
485.39	87.9582
485.52	87.7389
485.64	87.1690
485.77	87.7482
485.90	87.4077
486.03	88.3880
486.16	88.4863
486.29	88.5438
486.42	88.2863
486.55	87.8131
486.68	87.2913
486.81	87.7985
486.94	87.6970
487.06	87.1090
487.19	87.4726
487.32	87.7784
487.45	87.3491
487.58	87.9034
487.71	88.0477
487.84	87.6526
487.97	87.4570
488.10	87.9343
488.23	87.3093
488.35	87.7748
488.48	88.3056
488.61	88.4896
488.74	88.1147
488.87	87.6990
489.00	87.4883
489.13	87.5468
489.26	87.3745
489.39	87.2931
489.52	88.0118
489.64	87.8367
489.77	87.5882
489.90	87.3378
490.03	87.4052
490.16	87.4057
490.29	86.9102
490.42	87.0944
490.55	87.0744
490.68	87.4875
490.81	86.7195
490.93	87.1123
491.06	86.9374
491.19	86.6946
491.32	86.5085
491.45	87.0883
491.58	87.3415
491.71	87.7111
491.84	87.5150
491.97	87.1514
492.09	87.4450
492.22	87.0420
492.35	86.7776
492.48	87.5245
492.61	87.2917
492.74	86.9321
492.87	87.2232
493.00	86.7190
493.12	86.3320
493.25	86.7818
493.38	87.2203
493.51	86.8567
493.64	87.0138
493.77	87.1442
493.90	86.5785
494.03	86.0142
494.16	86.5230
494.28	87.1023
494.41	86.4748
494.54	86.5812
494.67	87.2888
494.80	86.9305
494.93	86.5177
495.06	87.2694
495.19	87.8162
495.31	87.6065
495.44	87.5120
495.57	87.6937
495.70	87.9677
495.83	87.8661
495.96	87.0745
496.09	86.7972
496.22	87.1978
496.34	86.8132
496.47	86.1290
496.60	86.1878
496.73	86.8020
496.86	85.9817
496.99	86.1476
497.12	86.4574
497.24	86.5662
497.37	86.4061
497.50	86.7375
497.63	85.9040
497.76	85.5647
497.89	86.4826
498.02	86.5115
498.15	86.1840
498.27	86.4351
498.40	86.7605
498.53	85.9777
498.66	86.2685
498.79	86.3324
498.92	86.5014
499.05	86.7379
499.17	86.3015
499.30	85.9014
499.43	86.4405
499.56	86.3320
499.69	86.1082
499.82	86.7498
499.95	86.9236
500.07	86.5468
500.20	85.8867
500.33	86.0259
500.46	86.2309
500.59	85.9999
500.72	85.7070
500.85	86.3063
500.97	86.7204
501.10	86.5948
501.23	86.1286
501.36	86.2081
501.49	86.5682
501.62	85.6151
501.75	85.7404
501.87	86.0131
502.00	85.8604
502.13	85.7799
502.26	86.0664
502.39	85.9591
502.52	86.0732
502.64	85.8689
502.77	85.7522
502.90	86.1862
503.03	86.1003
503.16	85.6724
503.29	86.0720
503.42	86.2625
503.54	86.1297
503.67	85.5010
503.80	86.4644
503.93	86.6567
504.06	86.1134
504.19	85.9831
504.31	86.2456
504.44	85.5847
504.57	85.6190
504.70	85.6781
504.83	85.5930
504.96	85.7129
505.08	85.1675
505.21	84.8234
505.34	85.1112
505.47	85.1118
505.60	85.1704
505.73	85.1085
505.85	85.4069
505.98	85.7260
506.11	85.7919
506.24	85.6520
506.37	85.9339
506.50	85.8896
506.62	85.6150
506.75	85.2220
506.88	85.5625
507.01	85.8533
507.14	85.7266
507.27	85.5994
507.39	85.9325
507.52	85.1742
507.65	85.3441
507.78	84.9683
507.91	84.7226
508.04	84.5524
508.16	85.0426
508.29	85.3622
508.42	85.9142
508.55	85.6005
508.68	85.7972
508.81	85.8640
508.93	85.3229
509.06	84.9737
509.19	85.5682
509.32	85.2107
509.45	85.1738
509.57	85.1626
509.70	85.2651
509.83	85.0559
509.96	85.2592
510.09	85.1976
510.22	85.4258
510.34	84.9715
510.47	85.1567
510.60	85.1013
510.73	85.0353
510.86	84.9988
510.98	85.1681
511.11	84.9215
511.24	85.0904
511.37	85.1061
511.50	84.9650
511.63	85.1680
511.75	85.1209
511.88	84.8969
512.01	84.7145
512.14	84.6571
512.27	84.5622
512.39	84.5255
512.52	84.5796
512.65	84.6836
512.78	84.4990
512.91	84.3350
513.03	84.2571
513.16	84.3201
513.29	84.2114
513.42	84.1214
513.55	84.5825
513.67	85.0019
513.80	84.8241
513.93	84.7083
514.06	85.0398
514.19	84.6259
514.31	84.6461
514.44	84.6283
514.57	84.5056
514.70	84.7676
514.83	85.1538
514.95	84.9552
515.08	85.0628
515.21	85.3891
515.34	85.3221
515.47	85.0492
515.59	84.9870
515.72	84.6052
515.85	84.6965
515.98	84.3614
516.11	84.1799
516.23	84.3617
516.36	84.9218
516.49	84.5838
516.62	84.4159
516.75	85.0639
516.87	84.9798
517.00	84.3360
517.13	84.5431
517.26	85.2921
517.39	84.7915
517.51	84.2443
517.64	84.8870
517.77	84.7779
517.90	84.3515
518.02	84.6873
518.15	84.9585
518.28	84.5523
518.41	84.4397
518.54	84.3622
518.66	84.2074
518.79	84.3317
518.92	84.2995
519.05	84.0983
519.18	84.0876
519.30	83.9231
519.43	83.9218
519.56	83.7438
519.69	84.1733
519.81	84.4099
519.94	84.3856
520.07	84.3324
520.20	84.5392
520.33	84.5436
520.45	84.2586
520.58	84.0527
520.71	84.0033
520.84	84.1729
520.96	84.1523
521.09	83.9129
521.22	83.9547
521.35	84.3020
521.48	84.4272
521.60	84.2593
521.73	84.0012
521.86	84.2654
521.99	84.1981
522.11	83.7900
522.24	83.9565
522.37	84.0291
522.50	84.2868
522.62	84.0764
522.75	84.2963
522.88	84.0182
523.01	84.1347
523.14	83.4346
523.26	83.6836
523.39	83.3157
523.52	83.4920
523.65	83.8172
523.77	84.0998
523.90	83.7722
524.03	84.0286
524.16	83.9966
524.28	83.7978
524.41	84.0286
524.54	84.1199
524.67	83.8644
524.79	83.5485
524.92	83.8105
525.05	83.4546
525.18	83.6885
525.31	83.2891
525.43	83.7945
525.56	84.1695
525.69	84.1321
525.82	83.6852
525.94	84.4056
526.07	84.3342
526.20	83.5166
526.33	83.5489
526.45	83.7894
526.58	83.8653
526.71	83.5881
526.84	84.0176
526.96	84.0377
527.09	84.0594
527.22	84.1667
527.35	83.9317
527.47	83.9715
527.60	83.8800
527.73	83.5815
527.86	83.2631
527.98	83.6871
528.11	83.2374
528.24	83.5665
528.37	83.6571
528.49	83.3530
528.62	83.6040
528.75	83.8562
528.88	83.5682
529.00	83.8119
529.13	84.2500
529.26	83.5646
529.39	83.3561
529.51	83.8080
529.64	83.7688
529.77	83.5161
529.90	83.8523
530.02	84.2463
530.15	83.9437
530.28	83.8009
530.40	83.7828
530.53	83.8740
530.66	83.3933
530.79	83.3689
530.91	83.2502
531.04	83.3578
531.17	83.2035
531.30	83.4574
531.42	82.9829
531.55	83.2834
531.68	83.3869
531.81	83.3216
531.93	83.4593
532.06	83.7713
532.19	83.4532
532.31	83.2489
532.44	83.5402
532.57	83.3696
532.70	83.2940
532.82	83.1454
532.95	83.0150
533.08	82.8955
533.21	83.0289
533.33	83.2072
533.46	82.9558
533.59	83.3051
533.71	83.4413
533.84	83.4363
533.97	83.4318
534.10	83.8497
534.22	83.7734
534.35	83.3243
534.48	83.2956
534.61	83.3929
534.73	83.3036
534.86	82.9872
534.99	83.2186
535.11	83.1624
535.24	83.1442
535.37	83.3690
535.50	83.3961
535.62	83.2153
535.75	83.1877
535.88	82.9895
536.00	82.7314
536.13	82.8909
536.26	83.1950
536.39	82.9439
536.51	83.0917
536.64	83.3640
536.77	83.3141
536.89	83.0459
537.02	83.2695
537.15	83.1113
537.28	83.0923
537.40	82.8865
537.53	82.8416
537.66	82.9035
537.78	83.0806
537.91	82.9858
538.04	83.5259
538.17	83.4172
538.29	82.9779
538.42	82.7725
538.55	82.8928
538.67	82.5322
538.80	82.9787
538.93	83.0853
539.05	83.0697
539.18	82.8671
539.31	83.2090
539.44	82.8710
539.56	83.0648
539.69	83.3639
539.82	83.5068
539.94	82.7911
540.07	82.8728
540.20	82.8517
540.32	82.5063
540.45	82.0707
540.58	82.7058
540.71	82.9193
540.83	82.9859
540.96	82.7699
541.09	82.8478
541.21	82.9059
541.34	82.8552
541.47	82.7049
541.59	82.6595
541.72	82.9079
541.85	83.0024
541.98	82.8975
542.10	82.4993
542.23	82.8162
542.36	82.8554
542.48	82.6333
542.61	82.4868
542.74	82.9708
542.86	83.1056
542.99	82.9316
543.12	82.9382
543.24	82.8972
543.37	82.8657
543.50	82.6894
543.62	82.9112
543.75	82.8387
543.88	82.7672
544.01	82.5470
544.13	82.5914
544.26	82.3939
544.39	82.1784
544.51	82.1624
544.64	82.4363
544.77	82.3135
544.89	82.5285
545.02	82.4591
545.15	82.3060
545.27	82.2347
545.40	82.1884
545.53	82.1582
545.65	82.4977
545.78	82.7793
545.91	82.6196
546.03	82.8881
546.16	82.8451
546.29	82.6862
546.41	82.8396
546.54	82.7669
546.67	82.3595
546.79	82.4742
546.92	82.3246
547.05	82.1746
547.17	82.2598
547.30	82.6419
547.43	82.3299
547.56	82.5128
547.68	82.4039
547.81	82.3948
547.94	82.3055
548.06	82.1224
548.19	82.0880
548.32	82.3016
548.44	82.2454
548.57	81.9343
548.70	82.1072
548.82	82.1682
548.95	82.2124
549.08	81.9501
549.20	82.1691
549.33	82.3224
549.45	82.4388
549.58	82.0664
549.71	82.6239
549.83	82.5464
549.96	82.3306
550.09	81.9603
550.21	82.2356
550.34	81.9911
550.47	82.3730
550.59	82.4303
550.72	82.1894
550.85	82.2253
550.97	82.4346
551.10	81.9212
551.23	81.8822
551.35	82.3740
551.48	82.4156
551.61	81.9866
551.73	82.0340
551.86	82.1317
551.99	81.7314
552.11	81.4254
552.24	81.7974
552.37	81.9864
552.49	81.9206
552.62	82.1663
552.75	82.3496
552.87	82.1478
553.00	82.1033
553.12	81.9989
553.25	81.7921
553.38	81.6872
553.50	81.9328
553.63	81.8435
553.76	81.9781
553.88	82.2540
554.01	82.1784
554.14	81.7913
554.26	82.0057
554.39	81.9865
554.52	81.9765
554.64	82.0238
554.77	82.1309
554.89	81.9244
555.02	81.8914
555.15	81.7634
555.27	81.4890
555.40	81.6064
555.53	81.7903
555.65	81.5785
555.78	81.3513
555.91	81.7772
556.03	81.8631
556.16	81.5637
556.29	81.5027
556.41	81.9034
556.54	81.8756
556.66	81.3358
556.79	81.4113
556.92	81.8810
557.04	81.6447
557.17	81.4578
557.30	81.8147
557.42	81.6930
557.55	81.4275
557.67	81.3404
557.80	81.2463
557.93	81.4699
558.05	81.5922
558.18	81.5058
558.31	81.4929
558.43	81.6609
558.56	81.6087
558.68	81.5770
558.81	81.3472
558.94	81.5886
559.06	81.5795
559.19	81.4568
559.32	81.4200
559.44	81.7041
559.57	81.5359
559.69	81.2462
559.82	81.0707
559.95	81.2241
560.07	81.0918
560.20	80.8409
560.33	81.1270
560.45	80.9079
560.58	80.8737
560.70	80.9998
560.83	81.1544
560.96	80.8354
561.08	81.2395
561.21	81.3691
561.33	81.0510
561.46	81.1612
561.59	81.3952
561.71	81.3294
561.84	81.0115
561.97	81.4425
562.09	81.4843
562.22	81.3456
562.34	81.3127
562.47	81.4809
562.60	81.3717
562.72	81.1805
562.85	81.2635
562.97	81.2376
563.10	81.1585
563.23	80.9703
563.35	80.9258
563.48	80.7231
563.60	80.8516
563.73	80.9143
563.86	81.0298
563.98	81.2645
564.11	81.2597
564.23	81.1766
564.36	81.0090
564.49	81.1326
564.61	81.1254
564.74	81.1671
564.86	81.0992
564.99	81.0775
565.12	81.0410
565.24	80.9596
565.37	80.9926
565.49	81.0360
565.62	81.3886
565.75	80.8143
565.87	80.6622
566.00	80.9368
566.12	80.6523
566.25	80.4189
566.38	80.7476
566.50	80.8151
566.63	80.7266
566.75	81.0318
566.88	81.0025
567.01	81.1727
567.13	81.3796
567.26	81.1314
567.38	81.1501
567.51	81.1031
567.64	81.0019
567.76	80.9018
567.89	81.1502
568.01	80.9615
568.14	80.9637
568.26	81.0266
568.39	80.8696
568.52	80.7479
568.64	80.8209
568.77	80.8141
568.89	80.9220
569.02	81.0435
569.15	80.9428
569.27	80.7622
569.40	80.7576
569.52	80.6775
569.65	80.7492
569.77	80.9881
569.90	80.9038
570.03	81.0667
570.15	81.1189
570.28	81.2575
570.40	81.0991
570.53	81.2374
570.66	81.1270
570.78	81.1096
570.91	80.7733
571.03	80.7684
571.16	80.9350
571.28	80.9156
571.41	81.0041
571.54	81.0487
571.66	81.0370
571.79	81.0308
571.91	80.9258
572.04	80.5441
572.16	80.6004
572.29	80.5922
572.42	80.5901
572.54	80.5320
572.67	80.7903
572.79	80.7722
572.92	80.7612
573.04	80.8199
573.17	81.0738
573.29	80.7217
573.42	80.5562
573.55	80.5758
573.67	80.5456
573.80	80.5060
573.92	80.5918
574.05	80.6379
574.17	80.6440
574.30	80.6551
574.43	80.4750
574.55	80.6946
574.68	80.7830
574.80	80.9014
574.93	80.9085
575.05	81.0331
575.18	80.9143
575.30	80.7796
575.43	80.7850
575.56	80.7597
575.68	80.8852
575.81	80.8541
575.93	80.9620
576.06	81.0029
576.18	80.9840
576.31	80.4691
576.43	80.4780
576.56	80.5141
576.69	80.5136
576.81	80.5388
576.94	80.8980
577.06	81.0638
577.19	81.0054
577.31	80.6498
577.44	80.5824
577.56	80.4189
577.69	80.4314
577.82	80.7235
577.94	80.7375
578.07	80.5295
578.19	80.8680
578.32	80.8894
578.44	80.5903
578.57	80.8489
578.69	80.9188
578.82	80.6157
578.94	80.5298
579.07	80.6007
579.19	80.5407
579.32	80.7843
579.45	81.0751
579.57	81.0408
579.70	81.1387
579.82	80.9870
579.95	80.9843
580.07	80.8115
580.20	80.8363
580.32	80.7669
580.45	80.9151
580.57	80.7540
580.70	80.6382
580.82	80.9722
580.95	80.7344
581.08	80.7693
581.20	80.7391
581.33	80.8522
581.45	80.3767
581.58	80.8812
581.70	80.8093
581.83	80.7960
581.95	80.8739
582.08	81.0840
582.20	80.8780
582.33	80.9759
582.45	80.9170
582.58	80.8552
582.70	80.8142
582.83	80.6389
582.95	80.5009
583.08	80.4773
583.21	80.5309
583.33	80.7661
583.46	80.7843
583.58	80.7200
583.71	80.8899
583.83	80.8649
583.96	80.6376
584.08	80.6876
584.21	80.9438
584.33	81.1400
584.46	80.9803
584.58	80.8262
584.71	80.9537
584.83	81.0142
584.96	80.6726
585.08	80.6172
585.21	80.7811
585.33	80.6319
585.46	80.6212
585.58	80.8138
585.71	80.8397
585.83	80.9311
585.96	80.8930
586.08	80.6426
586.21	80.7455
586.33	80.7940
586.46	80.7439
586.59	80.7062
586.71	80.6991
586.84	80.6942
586.96	80.8156
587.09	80.4374
587.21	80.5334
587.34	80.7618
587.46	80.4938
587.59	80.4877
587.71	81.0268
587.84	81.1553
587.96	80.8608
588.09	80.9166
588.21	80.8101
588.34	80.5939
588.46	80.4724
588.59	80.6494
588.71	80.6914
588.84	80.4137
588.96	80.3842
589.09	80.5666
589.21	80.6340
589.34	80.5472
589.46	80.7951
589.59	81.0523
589.71	81.0374
589.84	80.9443
589.96	80.9756
590.09	81.0604
590.21	80.8341
590.34	80.8876
590.46	80.8771
590.59	80.7069
590.71	80.8798
590.84	80.7380
590.96	80.5153
591.09	80.6305
591.21	81.0336
591.34	80.6551
591.46	80.7097
591.59	80.6332
591.71	80.7440
591.83	80.6042
591.96	80.9009
592.08	81.0729
592.21	81.3221
592.33	81.3122
592.46	81.2277
592.58	81.0402
592.71	80.9770
592.83	80.6521
592.96	80.5888
593.08	80.7819
593.21	80.9476
593.33	80.9690
593.46	81.0398
593.58	80.8978
593.71	80.9763
593.83	80.7008
593.96	80.6708
594.08	80.8847
594.21	80.9117
594.33	80.8857
594.46	81.2858
594.58	81.3002
594.71	81.1896
594.83	80.7241
594.96	80.5046
595.08	80.4769
595.20	80.6240
595.33	80.2615
595.45	80.7224
595.58	80.9686
595.70	80.9222
595.83	80.7051
595.95	81.1475
596.08	81.3017
596.20	81.1283
596.33	81.1526
596.45	81.3713
596.58	81.2026
596.70	81.0626
596.83	80.9645
596.95	81.0367
597.08	80.8633
597.20	80.8802
597.32	80.8703
597.45	80.9348
597.57	80.8847
597.70	80.8819
597.82	81.0143
597.95	80.9840
598.07	80.9851
598.20	81.0140
598.32	80.9404
598.45	80.7673
598.57	80.9316
598.70	81.0801
598.82	80.8281
598.94	80.8419
599.07	80.9828
599.19	81.1684
599.32	80.8185
599.44	80.8916
599.57	80.9907
599.69	81.1265
599.82	80.5946
599.94	80.7884
600.07	81.0488
600.19	81.1405
600.31	80.6869
600.44	80.7775
600.56	80.8508
600.69	80.6945
600.81	80.6230
600.94	80.8411
601.06	80.8404
601.19	81.0404
601.31	80.8365
601.44	80.7811
601.56	80.8653
601.68	81.0397
601.81	80.6177
601.93	80.9406
602.06	81.1315
602.18	80.9306
602.31	80.7788
602.43	80.9998
602.56	80.9245
602.68	80.7027
602.80	81.0659
602.93	81.1986
603.05	81.2086
603.18	81.3127
603.30	81.5164
603.43	81.3366
603.55	81.3206
603.68	81.3017
603.80	81.1458
603.92	81.0131
604.05	81.2068
604.17	81.2072
604.30	81.1206
604.42	80.9578
604.55	80.9885
604.67	80.8369
604.79	80.7688
604.92	80.8499
605.04	81.0205
605.17	81.0142
605.29	80.8026
605.42	80.9317
605.54	80.9007
605.66	80.8814
605.79	80.7833
605.91	81.0449
606.04	80.8805
606.16	80.9017
606.29	81.0476
606.41	81.2806
606.53	81.2155
606.66	81.5062
606.78	81.6494
606.91	81.5840
607.03	81.6043
607.16	81.5529
607.28	81.2830
607.40	81.2228
607.53	81.2602
607.65	81.2349
607.78	81.1149
607.90	81.3938
608.03	81.3881
608.15	81.5201
608.27	81.5183
608.40	81.8290
608.52	81.5377
608.65	81.7185
608.77	81.4544
608.89	81.1626
609.02	81.2106
609.14	81.3257
609.27	81.2525
609.39	81.6841
609.52	81.9762
609.64	81.9415
609.76	81.8399
609.89	81.5664
610.01	81.3278
610.14	81.3644
610.26	81.1571
610.38	81.4667
610.51	81.7717
610.63	81.6983
610.76	81.6516
610.88	81.5957
611.01	81.4357
611.13	81.4622
611.25	81.5427
611.38	81.5946
611.50	81.7681
611.63	81.9026
611.75	81.8221
611.87	81.5797
612.00	81.4944
612.12	81.7094
612.25	81.5844
612.37	81.5067
612.49	81.4440
612.62	81.4850
612.74	81.3143
612.87	81.4858
612.99	81.4058
613.11	81.4456
613.24	81.3951
613.36	81.4130
613.49	81.3202
613.61	81.2883
613.73	81.5877
613.86	81.6666
613.98	81.5835
614.11	81.4444
614.23	81.4945
614.35	81.4334
614.48	81.3736
614.60	81.3288
614.72	81.4265
614.85	81.5209
614.97	81.5292
615.10	81.4672
615.22	81.4859
615.34	81.6199
615.47	81.6141
615.59	81.5575
615.72	81.8626
615.84	81.6641
615.96	81.6202
616.09	81.8166
616.21	81.8000
616.34	81.5582
616.46	81.8964
616.58	81.8210
616.71	81.5789
616.83	81.4815
616.95	81.5035
617.08	81.5791
617.20	81.7081
617.33	81.6057
617.45	81.7911
617.57	81.9123
617.70	81.7617
617.82	81.5702
617.95	81.7832
618.07	81.7123
618.19	81.5355
618.32	81.6876
618.44	81.9267
618.56	82.0919
618.69	81.9240
618.81	82.0416
618.94	81.9265
619.06	81.7810
619.18	81.7305
619.31	81.8210
619.43	81.6958
619.55	82.0531
619.68	82.2851
619.80	81.8964
619.92	81.9208
620.05	82.2654
620.17	82.2473
620.30	82.0385
620.42	82.3735
620.54	82.5835
620.67	82.4199
620.79	81.9658
620.91	81.9627
621.04	81.9396
621.16	82.0227
621.29	81.9826
621.41	82.1938
621.53	82.4264
621.66	82.3024
621.78	81.9037
621.90	82.1118
622.03	82.2496
622.15	82.1557
622.27	82.4220
622.40	82.6316
622.52	82.7066
622.64	82.6420
622.77	82.3824
622.89	82.3033
623.02	82.3605
623.14	82.1286
623.26	81.9676
623.39	82.2819
623.51	82.4709
623.63	82.3306
623.76	82.3029
623.88	82.5134
624.00	82.4318
624.13	82.3337
624.25	82.4263
624.37	82.3567
624.50	82.6020
624.62	82.8573
624.75	82.6317
624.87	82.8134
624.99	82.9884
625.12	82.2996
625.24	82.0053
625.36	82.1558
625.49	81.9732
625.61	81.7567
625.73	82.3024
625.86	82.4124
625.98	82.5313
626.10	82.5220
626.23	82.6765
626.35	82.6673
626.47	82.6924
626.60	82.6401
626.72	82.6654
626.84	82.8450
626.97	82.9265
627.09	82.6581
627.21	82.5191
627.34	82.8646
627.46	82.8384
627.58	82.5337
627.71	83.0942
627.83	83.0414
627.95	82.4465
628.08	82.3794
628.20	82.6701
628.32	82.4301
628.45	82.5430
628.57	82.8192
628.69	82.6415
628.82	82.6383
628.94	82.6285
629.06	82.6067
629.19	82.8905
629.31	83.0383
629.43	82.9396
629.56	82.7342
629.68	82.9140
629.80	82.8210
629.93	82.8632
630.05	82.8432
630.17	83.2248
630.30	83.1187
630.42	83.2169
630.54	83.4505
630.67	83.2347
630.79	83.1643
630.91	83.2716
631.04	83.2461
631.16	83.1751
631.28	83.5739
631.41	83.3567
631.53	83.1544
631.65	82.9273
631.78	82.7638
631.90	82.9448
632.02	82.9128
632.14	83.1223
632.27	83.3499
632.39	83.1442
632.51	82.9201
632.64	83.2127
632.76	83.2306
632.88	83.2949
633.01	83.5590
633.13	83.1412
633.25	83.2423
633.38	83.3508
633.50	83.3228
633.62	83.4962
633.75	83.8051
633.87	83.6806
633.99	83.7001
634.11	83.5053
634.24	83.3968
634.36	83.4605
634.48	83.1824
634.61	83.2171
634.73	83.4382
634.85	83.5288
634.98	83.6751
635.10	83.6410
635.22	83.5476
635.35	83.7883
635.47	83.7647
635.59	83.6290
635.71	83.8505
635.84	83.7061
635.96	83.5582
636.08	83.4644
636.21	83.4221
636.33	83.6724
636.45	83.9994
636.58	83.6677
636.70	83.8042
636.82	84.1898
636.94	83.9293
637.07	83.6226
637.19	83.7787
637.31	83.8644
637.44	83.5395
637.56	83.5803
637.68	83.6700
637.81	84.0974
637.93	83.8513
638.05	83.5353
638.17	83.7149
638.30	83.8669
638.42	83.4968
638.54	83.6155
638.67	83.9365
638.79	83.9279
638.91	83.8515
639.03	83.9120
639.16	83.9198
639.28	84.0419
639.40	83.7652
639.53	83.7982
639.65	83.9148
639.77	83.8323
639.89	83.6994
640.02	84.0113
640.14	83.7280
640.26	83.6889
640.39	83.8314
640.51	83.7640
640.63	83.5992
640.75	83.9228
640.88	83.8896
641.00	83.4544
641.12	83.7976
641.24	84.1629
641.37	83.7789
641.49	83.8888
641.61	84.2647
641.74	84.2389
641.86	83.8428
641.98	84.1253
642.10	84.1162
642.23	84.1797
642.35	83.9904
642.47	84.0223
642.60	84.2210
642.72	84.1606
642.84	84.1041
642.96	84.1467
643.09	84.3179
643.21	84.2735
643.33	84.1991
643.45	84.0353
643.58	84.1828
643.70	84.1376
643.82	84.0955
643.94	84.1795
644.07	84.3482
644.19	84.1634
644.31	84.2159
644.44	84.1998
644.56	84.2241
644.68	84.3169
644.80	84.4817
644.93	84.4051
645.05	84.4664
645.17	84.5098
645.29	84.5215
645.42	84.2701
645.54	84.2332
645.66	84.2334
645.78	84.0749
645.91	83.7898
646.03	84.0616
646.15	84.1640
646.27	84.0935
646.40	84.0006
646.52	84.3082
646.64	84.4141
646.76	84.2570
646.89	84.2187
647.01	84.2428
647.13	84.4466
647.25	84.3288
647.38	84.3011
647.50	84.5935
647.62	84.9401
647.74	84.5727
647.87	84.3355
647.99	84.5557
648.11	84.5780
648.23	84.3110
648.36	84.5175
648.48	84.8619
648.60	85.0480
648.72	84.5729
648.85	84.7128
648.97	84.7722
649.09	84.7004
649.21	84.5231
649.34	84.8007
649.46	84.8422
649.58	84.9235
649.70	84.7308
649.83	84.6571
649.95	84.6144
650.07	84.5443
650.19	84.2890
650.32	84.3562
650.44	84.4980
650.56	84.5850
650.68	84.6894
650.81	84.6320
650.93	84.7523
651.05	84.5725
651.17	84.5469
651.29	84.4618
651.42	84.7514
651.54	84.9317
651.66	84.9575
651.78	84.5399
651.91	84.5859
652.03	84.5920
652.15	84.3716
652.27	84.5699
652.40	85.0633
652.52	85.2708
652.64	84.8388
652.76	84.9067
652.88	84.9271
653.01	85.1260
653.13	84.7911
653.25	84.9724
653.37	84.9581
653.50	85.0505
653.62	84.5752
653.74	84.5887
653.86	84.8629
653.98	84.8803
654.11	84.7530
654.23	84.6863
654.35	84.8193
654.47	84.8778
654.60	85.1918
654.72	84.9712
654.84	85.3506
654.96	85.4244
655.08	85.3236
655.21	84.9650
655.33	85.1839
655.45	85.2288
655.57	85.0868
655.70	84.8456
655.82	84.8545
655.94	85.1098
656.06	84.8823
656.18	84.8501
656.31	85.1447
656.43	85.2911
656.55	85.0721
656.67	85.0872
656.79	85.3859
656.92	85.4691
657.04	85.1614
657.16	85.2221
657.28	85.2673
657.40	85.2744
657.53	85.0691
657.65	85.0537
657.77	85.1077
657.89	85.3621
658.01	85.1424
658.14	85.2411
658.26	85.6681
658.38	85.5921
658.50	85.0762
658.62	85.1941
658.75	85.1032
658.87	85.2244
658.99	85.2272
659.11	85.3132
659.23	85.3939
659.36	85.5122
659.48	85.3504
659.60	85.4191
659.72	85.7113
659.84	85.7007
659.97	85.2870
660.09	85.0532
660.21	85.2039
660.33	85.4280
660.45	85.2533
660.58	85.3958
660.70	85.7045
660.82	85.4042
660.94	85.0047
661.06	85.0178
661.19	85.3619
661.31	85.2610
661.43	85.1741
661.55	85.1555
661.67	85.3795
661.80	85.2523
661.92	85.2327
662.04	85.3111
662.16	85.6660
662.28	85.5648
662.40	85.4875
662.53	85.6280
662.65	85.5907
662.77	85.6456
662.89	85.8520
663.01	85.9517
663.14	85.7129
663.26	85.9502
663.38	85.6611
663.50	85.1765
663.62	85.1491
663.74	85.2819
663.87	85.0740
663.99	84.7491
664.11	85.0544
664.23	85.2058
664.35	85.0871
664.48	85.3359
664.60	85.9906
664.72	86.1375
664.84	85.9603
664.96	86.1860
665.08	86.0519
665.21	86.1750
665.33	85.9870
665.45	85.9118
665.57	85.8229
665.69	85.8844
665.81	85.6175
665.94	85.4848
666.06	85.5246
666.18	85.7079
666.30	85.4831
666.42	85.3244
666.54	85.5409
666.67	85.4095
666.79	85.1597
666.91	85.4581
667.03	85.5462
667.15	85.5322
667.27	85.8631
667.40	85.6591
667.52	85.5143
667.64	85.7492
667.76	85.6122
667.88	85.3612
668.00	85.5556
668.13	85.6369
668.25	85.4957
668.37	85.4140
668.49	85.7535
668.61	85.9388
668.73	85.8874
668.85	85.7791
668.98	86.1359
669.10	85.9479
669.22	85.6054
669.34	85.8102
669.46	85.8145
669.58	85.5704
669.71	85.7247
669.83	85.9109
669.95	85.7202
670.07	85.7113
670.19	85.9439
670.31	85.8774
670.43	85.7570
670.56	85.7109
670.68	85.9034
670.80	85.4660
670.92	85.4361
671.04	85.7353
671.16	85.8897
671.28	85.6213
671.41	85.9980
671.53	86.2715
671.65	85.8250
671.77	85.5376
671.89	85.7836
672.01	86.0110
672.13	85.6910
672.26	86.1824
672.38	86.2522
672.50	86.0467
672.62	85.6327
672.74	85.7301
672.86	85.5399
672.98	85.7345
673.11	85.6642
673.23	85.9095
673.35	85.9422
673.47	86.2418
673.59	86.0846
673.71	85.8372
673.83	85.7105
673.96	85.8226
674.08	85.4323
674.20	85.4440
674.32	85.8622
674.44	85.8977
674.56	85.5464
674.68	85.5245
674.80	85.7409
674.93	85.7898
675.05	85.6537
675.17	85.7047
675.29	85.8673
675.41	85.7088
675.53	85.6548
675.65	85.5787
675.77	85.7664
675.90	85.9466
676.02	85.7009
676.14	85.3934
676.26	85.5924
676.38	85.4506
676.50	85.2915
676.62	85.7272
676.74	85.9479
676.87	85.7147
676.99	85.6967
677.11	85.6932
677.23	85.5560
677.35	85.8108
677.47	86.0531
677.59	86.0256
677.71	86.0370
677.83	85.9074
677.96	85.8197
678.08	85.9291
678.20	86.1575
678.32	86.2118
678.44	86.0014
678.56	85.9078
678.68	86.0225
678.80	85.9721
678.93	85.8465
679.05	85.9568
679.17	86.0274
679.29	85.8432
679.41	85.7906
679.53	85.7708
679.65	85.9705
679.77	85.9030
679.89	85.6659
680.01	85.9646
680.14	86.2127
680.26	86.1118
680.38	86.0766
680.50	86.2781
680.62	86.0114
680.74	85.8690
680.86	85.9705
680.98	85.6276
681.10	85.6362
681.22	85.7611
681.35	85.9172
681.47	85.4172
681.59	85.8613
681.71	85.9744
681.83	85.6348
681.95	85.1753
682.07	85.6361
682.19	85.6433
682.31	85.2431
682.43	85.5115
682.56	85.7945
682.68	85.7954
682.80	85.6112
682.92	85.9010
683.04	85.9569
683.16	85.7693
683.28	85.7739
683.40	85.8161
683.52	85.8461
683.64	85.8177
683.76	86.0206
683.89	85.8343
684.01	85.8793
684.13	85.8389
684.25	85.6241
684.37	85.6400
684.49	85.6178
684.61	85.7086
684.73	85.8690
684.85	85.7492
684.97	85.8745
685.09	86.3815
685.21	86.0844
685.34	86.0362
685.46	86.2914
685.58	85.9075
685.70	85.7726
685.82	86.0464
685.94	85.9449
686.06	85.8853
686.18	86.0905
686.30	85.8433
686.42	85.9486
686.54	85.6321
686.66	85.6537
686.79	85.3556
686.91	85.3660
687.03	85.4272
687.15	85.8354
687.27	85.6368
687.39	85.9607
687.51	86.0299
687.63	85.7433
687.75	85.2761
687.87	85.5857
687.99	85.4179
688.11	85.1501
688.23	85.2178
688.35	85.6177
688.48	85.5592
688.60	85.5859
688.72	85.8912
688.84	86.0904
688.96	86.2140
689.08	85.7475
689.20	85.7987
689.32	85.9418
689.44	86.0077
689.56	85.8055
689.68	86.2131
689.80	86.2470
689.92	86.0458
690.04	85.7992
690.16	85.7449
690.28	86.0139
690.41	85.8797
690.53	85.5783
690.65	85.3864
690.77	85.4023
690.89	85.1188
691.01	85.2687
691.13	85.4464
691.25	85.7207
691.37	86.0020
691.49	85.6365
691.61	85.5118
691.73	85.8035
691.85	85.8655
691.97	85.3952
692.09	85.7159
692.21	85.7070
692.33	85.8247
692.45	85.7245
692.57	85.7289
692.70	85.9734
692.82	86.1281
692.94	85.8064
693.06	85.8621
693.18	86.2513
693.30	85.8585
693.42	85.8005
693.54	85.9379
693.66	86.1265
693.78	85.9285
693.90	86.2140
694.02	86.4166
694.14	86.3287
694.26	85.8582
694.38	85.7811
694.50	85.8356
694.62	85.7680
694.74	85.7279
694.86	85.9351
694.98	85.9193
695.10	85.9526
695.22	85.8682
695.34	85.9483
695.46	85.8818
695.58	86.0290
695.71	85.9201
695.83	85.5607
695.95	85.6401
696.07	85.7944
696.19	85.9333
696.31	85.6644
696.43	85.9725
696.55	86.0654
696.67	86.0877
696.79	86.0648
696.91	85.9884
697.03	86.0651
697.15	86.0756
697.27	85.7247
697.39	85.6297
697.51	85.9322
697.63	85.5349
697.75	85.3419
697.87	85.7049
697.99	85.6291
698.11	85.5862
698.23	85.8945
698.35	85.8633
698.47	85.9130
698.59	85.6999
698.71	85.8471
698.83	85.9318
698.95	85.9739
699.07	85.7579
699.19	86.0681
699.31	85.8448
699.43	85.8552
699.55	85.9174
699.67	86.0610
699.79	86.0396
699.91	86.1529
700.03	86.1137
700.15	86.0236
700.27	86.1780
700.39	86.0969
700.51	86.1216
700.63	85.9811
700.75	86.1947
700.87	85.9499
700.99	86.2079
701.11	86.2343
701.24	86.1601
701.36	85.9650
701.48	86.1776
701.60	85.7308
701.72	85.7608
701.84	86.1468
701.96	86.0711
702.08	85.7467
702.20	86.0527
702.32	86.1486
702.44	86.1533
702.56	86.3090
702.68	86.1831
702.80	86.0732
702.92	86.0395
703.04	85.9459
703.16	86.1134
703.28	86.4187
703.40	86.4456
703.52	86.3052
703.64	86.1701
703.76	85.9697
703.88	85.9374
704.00	85.7726
704.12	85.8129
704.24	85.8239
704.36	85.9946
704.48	85.9743
704.60	86.2395
704.72	86.0158
704.84	86.0468
704.96	86.0867
705.07	86.2085
705.19	86.0443
705.31	86.4486
705.43	86.3852
705.55	86.2211
705.67	86.4089
705.79	86.6510
705.91	86.4334
706.03	86.5102
706.15	86.6729
706.27	86.4173
706.39	86.4364
706.51	86.5471
706.63	86.5371
706.75	86.2532
706.87	86.3248
706.99	86.4871
707.11	86.5316
707.23	86.6049
707.35	86.6627
707.47	86.5221
707.59	86.3728
707.71	86.2657
707.83	86.3044
707.95	86.0308
708.07	86.0746
708.19	86.3253
708.31	86.3595
708.43	86.2424
708.55	86.6502
708.67	86.6341
708.79	86.2979
708.91	86.1607
709.03	86.2934
709.15	86.1178
709.27	86.1004
709.39	85.9351
709.51	85.9457
709.63	86.0887
709.75	86.0583
709.87	86.1135
709.99	86.3816
710.11	86.7225
710.23	86.2157
710.35	86.2845
710.47	86.3288
710.58	86.0892
710.70	85.8777
710.82	86.1927
710.94	86.1819
711.06	86.2697
711.18	86.1640
711.30	85.9998
711.42	85.9261
711.54	86.2397
711.66	86.0626
711.78	85.9937
711.90	86.3736
712.02	86.7602
712.14	86.3159
712.26	86.1383
712.38	86.5588
712.50	86.4757
712.62	86.2529
712.74	86.0979
712.86	86.4427
712.98	86.4051
713.10	86.0951
713.22	85.8845
713.34	86.1801
713.45	86.1067
713.57	85.9488
713.69	86.0918
713.81	86.3822
713.93	86.8159
714.05	86.5969
714.17	86.4767
714.29	86.6820
714.41	86.4416
714.53	86.0686
714.65	86.4432
714.77	86.2966
714.89	86.1787
715.01	86.3076
715.13	86.3482
715.25	86.3137
715.37	86.4844
715.49	86.3895
715.61	86.1165
715.72	86.1702
715.84	86.1164
715.96	86.0645
716.08	86.0646
716.20	86.3760
716.32	86.3628
716.44	86.3195
716.56	86.2178
716.68	86.2193
716.80	86.2656
716.92	86.2702
717.04	86.2898
717.16	86.7486
717.28	86.6727
717.40	86.5118
717.52	86.4568
717.63	86.4070
717.75	86.3130
717.87	86.5621
717.99	86.3741
718.11	86.2521
718.23	86.1596
718.35	86.3261
718.47	86.1852
718.59	86.4521
718.71	86.4389
718.83	86.7921
718.95	86.5738
719.07	86.6142
719.19	86.5550
719.30	86.6410
719.42	86.3616
719.54	86.2957
719.66	86.4629
719.78	86.4093
719.90	86.4965
720.02	86.4178
720.14	86.4732
720.26	86.3004
720.38	86.6281
720.50	86.4288
720.62	86.7583
720.74	86.7154
720.85	86.4394
720.97	86.3654
721.09	86.4330
721.21	86.2638
721.33	86.4045
721.45	86.6602
721.57	86.8422
721.69	86.6508
721.81	86.3702
721.93	86.4610
722.05	86.7003
722.16	86.4183
722.28	86.5117
722.40	86.5355
722.52	86.7459
722.64	86.5884
722.76	86.4878
722.88	86.8841
723.00	87.1033
723.12	87.1193
723.24	86.8593
723.36	86.8032
723.47	86.6877
723.59	86.6570
723.71	86.5256
723.83	86.8117
723.95	86.7974
724.07	86.3934
724.19	86.5963
724.31	86.7539
724.43	86.8724
724.55	86.4186
724.66	86.9025
724.78	86.9477
724.90	86.5690
725.02	86.2838
725.14	87.1460
725.26	86.9996
725.38	86.6999
725.50	86.6612
725.62	86.9512
725.74	87.1253
725.85	87.3238
725.97	86.1940
726.09	86.5525
726.21	86.7084
726.33	86.4527
726.45	86.2843
726.57	87.5913
726.69	87.2486
726.81	86.9282
726.92	86.6823
727.04	86.7009
727.16	86.7035
727.28	86.8631
727.40	86.4561
727.52	86.3414
727.64	86.3100
727.76	86.4340
727.88	86.3596
727.99	86.6713
728.11	86.8599
728.23	86.9209
728.35	86.7486
728.47	86.6734
728.59	86.9232
728.71	86.9440
728.83	86.7074
728.94	86.5364
729.06	86.6075
729.18	86.4786
729.30	86.2651
729.42	86.2274
729.54	86.4562
729.66	86.2866
729.78	86.1604
729.90	86.5869
730.01	86.7530
730.13	86.8168
730.25	86.8652
730.37	87.0113
730.49	86.7819
730.61	86.7199
730.73	86.6322
730.84	86.6255
730.96	86.7422
731.08	86.8583
731.20	86.3549
731.32	86.4546
731.44	86.6277
731.56	86.2980
731.68	86.1793
731.79	86.8594
731.91	86.5851
732.03	86.5736
732.15	86.7333
732.27	86.5271
732.39	86.6343
732.51	87.0210
732.62	86.7463
732.74	86.8438
732.86	87.2145
732.98	86.9813
733.10	86.4112
733.22	86.8285
733.34	86.6349
733.45	86.5155
733.57	86.5368
733.69	86.9282
733.81	86.8863
733.93	86.9552
734.05	86.9266
734.17	87.0161
734.28	87.2763
734.40	87.2762
734.52	86.9964
734.64	87.0804
734.76	87.3249
734.88	86.9861
735.00	86.4969
735.11	87.0186
735.23	87.2675
735.35	86.7534
735.47	86.8277
735.59	87.2026
735.71	86.7838
735.83	86.3072
735.94	86.3952
736.06	86.2379
736.18	86.1850
736.30	86.6717
736.42	86.9048
736.54	86.4668
736.65	86.6667
736.77	86.8335
736.89	86.0583
737.01	86.3798
737.13	87.1110
737.25	86.9569
737.36	86.7843
737.48	87.4543
737.60	87.0630
737.72	86.6117
737.84	86.7985
737.96	86.7092
738.08	86.8035
738.19	86.7661
738.31	87.1494
738.43	87.0207
738.55	87.3657
738.67	87.2119
738.79	87.2193
738.90	87.4118
739.02	87.6333
739.14	87.3335
739.26	87.1343
739.38	87.4108
739.50	87.2346
739.61	87.1047
739.73	87.1230
739.85	86.9893
739.97	87.1543
740.09	87.0927
740.20	86.9479
740.32	87.3643
740.44	87.7090
740.56	87.4099
740.68	87.4780
740.80	87.4252
740.91	87.0849
741.03	87.1719
741.15	86.9863
741.27	86.9294
741.39	86.8660
741.51	86.9751
741.62	86.9803
741.74	87.2869
741.86	87.3847
741.98	87.6998
742.10	87.6681
742.21	87.6798
742.33	87.1533
742.45	87.1075
742.57	86.9035
742.69	86.9884
742.80	86.9493
742.92	87.4333
743.04	87.0766
743.16	87.4515
743.28	87.4628
743.40	87.5484
743.51	87.4835
743.63	87.8718
743.75	87.5912
743.87	87.4333
743.99	87.2505
744.10	87.3480
744.22	87.1231
744.34	86.9718
744.46	87.2486
744.58	87.0182
744.69	86.9035
744.81	87.3802
744.93	87.3383
745.05	86.9100
745.17	87.2754
745.28	87.3494
745.40	87.1699
745.52	87.3827
745.64	87.8239
745.76	88.0231
745.87	87.8240
745.99	87.9096
746.11	88.0389
746.23	88.0497
746.35	87.3063
746.46	87.3548
746.58	87.1926
746.70	87.1623
746.82	87.1896
746.94	87.8367
747.05	88.1110
747.17	88.2966
747.29	87.7456
747.41	87.8890
747.53	87.8412
747.64	87.4882
747.76	87.0640
747.88	87.5962
748.00	87.4399
748.12	87.4177
748.23	87.4749
748.35	87.6510
748.47	87.8587
748.59	87.8651
748.70	87.8508
748.82	88.0184
748.94	88.0262
749.06	88.0026
749.18	87.7048
749.29	87.6856
749.41	87.7893
749.53	87.7589
749.65	87.8226
749.76	88.1106
749.88	87.8968
750.00	87.5670
750.12	87.6300
750.24	87.5645
750.35	87.1341
750.47	87.3434
750.59	87.2810
750.71	87.6605
750.82	87.6337
750.94	87.9555
751.06	87.9464
751.18	88.1922
751.30	87.7606
751.41	87.7599
751.53	87.9146
751.65	87.7539
751.77	87.6519
751.88	88.1726
752.00	87.8816
752.12	87.7968
752.24	88.0204
752.35	88.1125
752.47	87.6071
752.59	88.1683
752.71	87.9150
752.83	88.2195
752.94	88.2563
753.06	88.3918
753.18	88.1074
753.30	88.2961
753.41	87.8432
753.53	87.7429
753.65	87.9611
753.77	87.9696
753.88	87.8918
754.00	87.7889
754.12	88.1287
754.24	88.4682
754.35	88.2368
754.47	88.2343
754.59	88.5928
754.71	88.5257
754.82	87.8100
754.94	88.0130
755.06	88.0503
755.18	88.0261
755.29	87.7406
755.41	88.0273
755.53	88.0831
755.65	88.1504
755.76	87.6780
755.88	87.7669
756.00	88.0226
756.12	87.9486
756.23	87.4733
756.35	87.8593
756.47	88.2213
756.59	87.9142
756.70	88.1237
756.82	88.5030
756.94	88.4758
757.06	88.3377
757.17	88.6465
757.29	88.3505
757.41	88.5098
757.53	88.5431
757.64	88.3113
757.76	88.0027
757.88	88.1635
758.00	88.4315
758.11	88.3935
758.23	88.5798
758.35	88.5085
758.47	88.5687
758.58	88.3138
758.70	88.5413
758.82	88.3058
758.94	88.6506
759.05	88.6721
759.17	88.2907
759.29	88.1514
759.40	88.4428
759.52	88.1160
759.64	87.8642
759.76	88.2729
759.87	88.4248
759.99	88.6398
760.11	88.7928
760.23	88.9159
760.34	88.9494
760.46	88.8387
760.58	88.3935
760.70	88.3425
760.81	88.3671
760.93	88.3904
761.05	88.6907
761.16	88.9783
761.28	89.3011
761.40	89.0324
761.52	88.8518
761.63	88.6075
761.75	88.6278
761.87	88.3507
761.98	88.7566
762.10	88.8125
762.22	89.1493
762.34	88.9766
762.45	88.4447
762.57	88.5784
762.69	88.5642
762.81	88.5764
762.92	88.5397
763.04	88.7471
763.16	88.6182
763.27	88.6193
763.39	88.0828
763.51	88.2151
763.63	88.8613
763.74	88.8423
763.86	88.9604
763.98	88.8582
764.09	88.9781
764.21	88.6614
764.33	88.6307
764.44	88.5666
764.56	88.8976
764.68	89.0207
764.80	88.6611
764.91	88.7923
765.03	88.9452
765.15	89.1275
765.26	88.6174
765.38	88.9399
765.50	88.7126
765.62	88.4958
765.73	88.4457
765.85	88.5715
765.97	88.8048
766.08	89.0456
766.20	89.0925
766.32	88.7334
766.43	88.8516
766.55	88.7011
766.67	88.6185
766.79	88.7924
766.90	89.1316
767.02	89.3601
767.14	88.6205
767.25	88.5646
767.37	88.5967
767.49	88.2422
767.60	87.9177
767.72	88.7784
767.84	89.0378
767.95	88.7995
768.07	88.9100
768.19	89.0383
768.31	88.9625
768.42	88.7548
768.54	88.5237
768.66	88.5323
768.77	88.7592
768.89	88.7127
769.01	88.4982
769.12	88.8589
769.24	89.0971
769.36	89.0260
769.47	88.7986
769.59	88.9286
769.71	88.9080
769.82	89.0400
769.94	88.7089
770.06	89.0665
770.17	89.0548
770.29	88.8557
770.41	88.8556
770.53	89.0932
770.64	88.8681
770.76	88.8143
770.88	89.4430
770.99	89.3138
771.11	89.4364
771.23	89.2869
771.34	89.2010
771.46	88.8428
771.58	88.7211
771.69	88.4077
771.81	88.9556
771.93	88.8499
772.04	88.8966
772.16	88.8574
772.28	89.1201
772.39	88.6778
772.51	89.2123
772.63	89.2575
772.74	88.6990
772.86	88.9109
772.98	89.2270
773.09	89.0315
773.21	88.9530
773.33	89.8597
773.44	89.4684
773.56	89.1269
773.68	89.3738
773.79	89.4846
773.91	89.3708
774.03	89.2155
774.14	89.6660
774.26	89.8910
774.38	89.7332
774.49	89.5398
774.61	89.9639
774.73	89.8883
774.84	89.4666
774.96	89.7146
775.08	89.7597
775.19	89.5566
775.31	89.5385
775.43	89.7788
775.54	89.2290
775.66	89.5870
775.77	89.4197
775.89	89.1047
776.01	88.8779
776.12	89.6168
776.24	89.5108
776.36	89.5228
776.47	89.5785
776.59	89.9442
776.71	89.8911
776.82	89.8397
776.94	89.8982
777.06	90.3654
777.17	90.3949
777.29	90.0555
777.41	89.9906
777.52	89.8935
777.64	90.0196
777.75	89.8753
777.87	89.7071
777.99	89.6290
778.10	89.9966
778.22	89.8022
778.34	89.5315
778.45	89.7513
778.57	89.8539
778.69	89.3420
778.80	89.3049
778.92	89.6202
779.04	89.6151
779.15	89.3821
779.27	89.5276
779.38	89.6002
779.50	89.4021
779.62	89.8366
779.73	89.4458
779.85	89.8782
779.97	90.0650
780.08	89.8868
780.20	89.4079
780.31	90.0750
780.43	90.1640
780.55	89.6473
780.66	89.3306
780.78	89.8418
780.90	90.1202
781.01	90.1050
781.13	89.8580
781.25	90.5389
781.36	90.2453
781.48	89.4673
781.59	89.1502
781.71	89.9153
781.83	90.2202
781.94	89.7260
782.06	90.2284
782.18	91.0211
782.29	90.4844
782.41	89.9323
782.52	90.4750
782.64	90.6463
782.76	90.6644
782.87	90.3897
782.99	89.8155
783.10	90.0131
783.22	89.8390
783.34	89.1027
783.45	89.6859
783.57	90.1054
783.69	89.4222
783.80	89.2750
783.92	89.5520
784.03	89.4027
784.15	89.7323
784.27	90.1313
784.38	90.1594
784.50	90.2304
784.61	90.4793
784.73	90.7095
784.85	90.4190
784.96	90.4115
785.08	90.3393
785.19	90.5607
785.31	90.5013
785.43	90.4845
785.54	90.5256
785.66	90.1819
785.77	90.2158
785.89	89.9640
786.01	90.1928
786.12	89.8520
786.24	90.0191
786.35	89.7077
786.47	90.0232
786.59	89.9584
786.70	90.4478
786.82	90.4564
786.93	90.4181
787.05	90.2847
787.17	90.6578
787.28	90.4535
787.40	90.4418
787.51	90.7894
787.63	90.4669
787.75	89.9657
787.86	90.1749
787.98	90.2967
788.09	89.6994
788.21	89.8177
788.33	90.5394
788.44	90.3319
788.56	90.6660
788.67	90.8759
788.79	91.2111
788.91	91.1771
789.02	90.7943
789.14	90.2679
789.25	90.4763
789.37	90.2315
789.48	90.1012
789.60	90.3765
789.72	90.1723
789.83	90.3935
789.95	90.7176
790.06	90.1211
790.18	90.1341
790.30	90.3776
790.41	90.0439
790.53	89.9220
790.64	90.2049
790.76	90.4913
790.87	90.5046
790.99	90.5357
791.11	90.5024
791.22	90.3293
791.34	90.1873
791.45	90.4154
791.57	90.5739
791.68	90.0228
791.80	90.1960
791.92	90.5202
792.03	90.5169
792.15	90.3916
792.26	90.5634
792.38	90.5011
792.49	90.4052
792.61	90.5986
792.73	91.1910
792.84	93.1721
792.96	88.4715
793.07	89.0803
793.19	89.9764
793.30	90.1483
793.42	89.0337
793.54	92.9107
793.65	92.4195
793.77	91.6963
793.88	90.7646
794.00	90.2397
794.11	90.8639
794.23	91.0312
794.34	91.1997
794.46	90.4337
794.58	89.9320
794.69	90.8983
794.81	91.0986
794.92	89.6359
795.04	90.1083
795.15	90.4654
795.27	90.2880
795.39	89.9915
795.50	91.0861
795.62	91.6543
795.73	91.6997
795.85	90.8675
795.96	90.9519
796.08	90.8605
796.19	90.8856
796.31	90.9197
796.42	90.9634
796.54	91.0271
796.66	91.4365
796.77	90.6425
796.89	91.1153
797.00	91.6520
797.12	90.9930
797.23	90.2898
797.35	90.7036
797.46	90.1515
797.58	90.2426
797.69	90.5796
797.81	90.9509
797.93	91.1907
798.04	90.8509
798.16	90.8652
798.27	90.9632
798.39	91.0913
798.50	91.2797
798.62	91.0681
798.73	91.0697
798.85	91.0262
798.96	90.4065
799.08	90.1408
799.19	90.9687
799.31	91.3377
799.43	91.3026
799.54	91.2474
799.66	91.5326
799.77	92.1516
799.89	91.7173
800.00	91.1452
800.12	90.9596
800.23	91.2240
800.35	90.8759
800.46	90.4127
800.58	90.8528
800.69	91.5515
800.81	90.6781
800.92	90.5754
801.04	91.2849
801.16	91.5079
801.27	91.4124
801.39	91.9253
801.50	91.3344
801.62	90.7929
801.73	91.2285
801.85	91.0936
801.96	90.6849
802.08	91.6405
802.19	92.0700
802.31	91.0520
802.42	91.0317
802.54	91.8335
802.65	90.9853
802.77	91.5392
802.88	91.4494
803.00	91.9354
803.11	91.7090
803.23	91.8486
803.34	91.4626
803.46	91.6301
803.57	91.6987
803.69	91.1609
803.80	91.4896
803.92	91.2299
804.03	91.3590
804.15	90.8532
804.26	91.5782
804.38	91.1661
804.50	90.8549
804.61	90.9518
804.73	91.6803
804.84	91.2705
804.96	91.5829
805.07	91.6288
805.19	91.4769
805.30	91.0238
805.42	91.0241
805.53	91.1357
805.65	91.6558
805.76	91.7882
805.88	91.4365
805.99	91.5935
806.11	91.3157
806.22	90.9673
806.34	91.1967
806.45	91.0184
806.57	91.2760
806.68	91.1191
806.80	90.9295
806.91	91.3067
807.03	92.0198
807.14	91.9394
807.26	91.9261
807.37	92.7489
807.49	92.1121
807.60	91.3095
807.72	91.3062
807.83	91.6642
807.95	90.9584
808.06	90.7340
808.17	91.4466
808.29	91.0362
808.40	90.6595
808.52	90.5116
808.63	91.1800
808.75	90.7527
808.86	90.9402
808.98	90.9202
809.09	91.2584
809.21	90.8063
809.32	91.7248
809.44	91.5085
809.55	92.2257
809.67	91.8228
809.78	91.4732
809.90	91.0714
810.01	90.4277
810.13	90.2866
810.24	90.9364
810.36	91.5059
810.47	90.8692
810.59	90.9927
810.70	91.1158
810.82	91.0434
810.93	91.1846
811.05	91.7364
811.16	92.0747
811.27	90.7726
811.39	91.0923
811.50	92.0534
811.62	91.6796
811.73	91.8051
811.85	92.6224
811.96	92.2058
812.08	91.3719
812.19	91.8078
812.31	92.6702
812.42	92.7848
812.54	92.3669
812.65	92.2261
812.77	92.0138
812.88	91.3954
813.00	92.0159
813.11	92.6125
813.22	93.0107
813.34	92.1983
813.45	91.3695
813.57	91.3005
813.68	91.9265
813.80	92.0050
813.91	91.5883
814.03	92.7661
814.14	92.0487
814.26	90.9261
814.37	90.9001
814.49	92.2383
814.60	91.5370
814.71	92.1183
814.83	92.2750
814.94	91.4461
815.06	91.8524
815.17	92.9893
815.29	91.1882
815.40	91.4833
815.52	92.3810
815.63	91.4046
815.75	91.4786
815.86	92.8198
815.97	92.0393
816.09	91.1903
816.20	93.0038
816.32	92.0176
816.43	92.4275
816.55	91.4890
816.66	92.2311
816.78	91.0625
816.89	91.7495
817.00	92.0547
817.12	92.6347
817.23	92.3275
817.35	93.3946
817.46	91.6260
817.58	91.7249
817.69	92.8475
817.81	92.7358
817.92	91.4342
818.03	93.4529
818.15	93.3057
818.26	93.0390
818.38	97.7275
818.49	104.3543
818.61	84.7817
818.72	86.6182
818.83	93.9114
818.95	90.6772
819.06	83.1559
819.18	103.9568
819.29	101.4519
819.41	93.7869
819.52	92.4635
819.64	94.4144
819.75	94.2780
819.86	92.8318
819.98	93.1015
820.09	94.0455
820.21	91.7827
820.32	89.7219
820.44	92.6412
820.55	92.4993
820.66	91.7623
820.78	92.3155
820.89	94.3553
821.01	92.3972
821.12	93.8937
821.23	91.0648
821.35	90.7402
821.46	92.1850
821.58	93.7284
821.69	90.6731
821.81	92.3897
821.92	91.6292
822.03	91.9821
822.15	91.8795
822.26	92.1528
822.38	92.4804
822.49	93.7098
822.61	90.8578
822.72	90.2474
822.83	93.6806
822.95	92.9557
823.06	91.2410
823.18	92.0705
823.29	93.3959
823.40	95.9253
823.52	91.9152
823.63	94.1521
823.75	98.3867
823.86	93.4161
823.97	91.1113
824.09	96.1437
824.20	97.5170
824.32	93.4506
824.43	92.3190
824.55	92.9537
824.66	94.9228
824.77	90.6841
824.89	92.0544
825.00	95.3359
825.12	94.7416
825.23	96.2080
825.34	94.6158
825.46	93.4569
825.57	99.5104
825.69	96.5866
825.80	95.8693
825.91	97.1074
826.03	100.0651
826.14	93.7750
826.26	94.0954
826.37	90.5251
826.48	98.8185
826.60	94.5363
826.71	94.8568
826.83	87.3427
826.94	84.6752
827.05	83.3747
827.17	86.3263
827.28	90.9962
827.39	96.7051
827.51	100.0845
827.62	98.1581
827.74	104.3409
827.85	103.2562
827.96	87.0521
828.08	101.2744
828.19	135.6942
828.31	119.1988
828.42	105.5248
828.53	120.0995
828.65	25.4238
828.76	0.0000
828.87	0.0000
828.99	0.0000
