Wavelength (nm)	Reflectance (%)
377.35	0.0000
377.48	0.0000
377.62	0.0000
377.75	119.9149
377.88	0.0000
378.02	112.3810
378.15	200.0000
378.28	200.0000
378.41	0.0000
378.55	200.0000
378.68	18.8000
378.81	200.0000
378.95	200.0000
379.08	200.0000
379.21	200.0000
379.35	21.9355
379.48	119.5814
379.61	127.2552
379.74	70.8300
379.88	0.0000
380.01	16.7113
380.14	42.2415
380.28	0.0000
380.41	0.0000
380.54	70.7094
380.68	69.7886
380.81	23.2211
380.94	8.3389
381.07	40.1026
381.21	48.3190
381.34	0.0000
381.47	13.0798
381.61	79.6092
381.74	60.0290
381.87	0.0000
382.00	51.7621
382.14	77.9150
382.27	13.8269
382.40	0.0000
382.54	47.5776
382.67	55.5981
382.80	18.5225
382.93	40.3298
383.07	50.6801
383.20	45.8331
383.33	70.0505
383.47	32.1118
383.60	31.1111
383.73	59.4938
383.86	55.7612
384.00	11.2648
384.13	45.6728
384.26	54.5115
384.40	22.8493
384.53	7.6887
384.66	26.0870
384.79	45.5989
384.93	37.2774
385.06	16.6676
385.19	20.5984
385.33	24.2296
385.46	2.4868
385.59	15.7163
385.72	54.4487
385.86	47.7917
385.99	47.8835
386.12	48.8555
386.25	19.7750
386.39	24.4734
386.52	38.0158
386.65	28.6351
386.79	6.8333
386.92	40.5792
387.05	48.5367
387.18	24.7311
387.32	18.4687
387.45	58.8328
387.58	48.7362
387.71	30.6854
387.85	36.2120
387.98	35.1057
388.11	34.5992
388.25	21.3817
388.38	11.7680
388.51	22.2490
388.64	45.0524
388.78	45.9572
388.91	21.0428
389.04	44.1214
389.17	40.0368
389.31	5.6117
389.44	0.0000
389.57	31.5463
389.70	28.2409
389.84	33.2845
389.97	36.1677
390.10	42.5846
390.24	46.1506
390.37	24.7210
390.50	22.1627
390.63	28.6606
390.77	20.8694
390.90	22.6198
391.03	40.3744
391.16	33.7438
391.30	36.9559
391.43	53.1367
391.56	32.2814
391.69	35.7524
391.83	52.5837
391.96	29.4319
392.09	17.2460
392.22	43.6226
392.36	43.3873
392.49	12.6414
392.62	15.1135
392.75	25.3220
392.89	21.1503
393.02	28.3644
393.15	17.9938
393.28	43.1526
393.42	34.6023
393.55	33.6607
393.68	20.9820
393.81	44.4112
393.95	43.3409
394.08	40.0640
394.21	32.9167
394.34	33.9652
394.48	38.2145
394.61	28.3534
394.74	33.2348
394.87	29.7702
395.01	45.8861
395.14	28.0370
395.27	14.8159
395.40	24.4305
395.54	31.9878
395.67	10.1739
395.80	25.7619
395.93	42.4513
396.07	41.3547
396.20	36.7469
396.33	40.1197
396.46	42.0172
396.59	47.8435
396.73	30.7163
396.86	30.7866
396.99	48.6783
397.12	64.2311
397.26	14.2179
397.39	17.7586
397.52	34.3612
397.65	25.8047
397.79	0.0000
397.92	41.2685
398.05	53.8691
398.18	32.2485
398.32	22.3557
398.45	29.6571
398.58	36.3590
398.71	29.4344
398.84	29.0725
398.98	30.2387
399.11	37.2920
399.24	32.6348
399.37	33.0154
399.51	37.3118
399.64	37.3366
399.77	33.6109
399.90	38.2000
400.03	27.6718
400.17	21.8300
400.30	23.7050
400.43	24.3175
400.56	17.6133
400.70	32.2943
400.83	38.4318
400.96	40.0238
401.09	32.3889
401.23	33.4660
401.36	27.5326
401.49	27.0992
401.62	29.5965
401.75	38.7260
401.89	33.4517
402.02	32.8620
402.15	34.0028
402.28	36.9824
402.41	40.9113
402.55	33.4909
402.68	31.8408
402.81	38.8532
402.94	41.0369
403.08	30.5973
403.21	34.9067
403.34	44.8163
403.47	34.9046
403.60	22.7706
403.74	30.9993
403.87	34.7048
404.00	33.1086
404.13	41.0921
404.26	41.7043
404.40	38.6789
404.53	45.8969
404.66	35.0865
404.79	30.1769
404.93	44.7380
405.06	43.6702
405.19	34.7995
405.32	38.5049
405.45	46.0583
405.59	47.0737
405.72	24.8153
405.85	34.9883
405.98	46.2617
406.11	40.9138
406.25	25.5078
406.38	47.6073
406.51	45.9858
406.64	42.3532
406.77	38.1720
406.91	45.8824
407.04	47.8657
407.17	46.5680
407.30	35.1091
407.43	34.3432
407.57	41.1821
407.70	43.3002
407.83	46.1324
407.96	43.4202
408.09	53.4081
408.23	53.9327
408.36	37.1389
408.49	32.1319
408.62	50.4072
408.75	44.9850
408.89	40.0544
409.02	47.1411
409.15	47.4365
409.28	51.7005
409.41	40.1023
409.55	39.4512
409.68	54.2520
409.81	51.3007
409.94	41.0158
410.07	57.7603
410.20	58.6261
410.34	51.3683
410.47	50.8777
410.60	56.7475
410.73	52.5590
410.86	55.3899
411.00	56.3629
411.13	59.8293
411.26	52.7353
411.39	54.1223
411.52	51.8193
411.66	55.0144
411.79	54.2711
411.92	60.3440
412.05	61.3404
412.18	57.0866
412.31	51.2185
412.45	61.1870
412.58	60.2029
412.71	52.6056
412.84	61.3485
412.97	69.4680
413.11	61.9338
413.24	52.6976
413.37	64.4768
413.50	66.8763
413.63	60.2653
413.76	59.7557
413.90	71.4890
414.03	68.5777
414.16	65.3793
414.29	58.5900
414.42	64.5745
414.56	62.8245
414.69	63.2468
414.82	60.2404
414.95	69.1215
415.08	62.4858
415.21	72.1211
415.35	68.6191
415.48	65.7935
415.61	77.6970
415.74	83.6973
415.87	62.7719
416.00	69.4945
416.14	81.9067
416.27	74.3360
416.40	70.7756
416.53	84.0036
416.66	87.5890
416.79	78.5273
416.93	77.2788
417.06	80.0773
417.19	81.4965
417.32	82.3012
417.45	78.1998
417.58	79.1773
417.72	79.3468
417.85	73.8438
417.98	72.7910
418.11	81.6730
418.24	82.1208
418.37	83.4522
418.51	81.7035
418.64	78.8027
418.77	84.5415
418.90	85.4047
419.03	79.8492
419.16	91.5387
419.29	99.6137
419.43	82.6503
419.56	81.0810
419.69	91.6438
419.82	89.3656
419.95	82.8742
420.08	86.8673
420.22	86.6940
420.35	83.4381
420.48	88.1316
420.61	83.4647
420.74	94.1876
420.87	100.1661
421.00	96.6979
421.14	86.4868
421.27	92.0924
421.40	91.6745
421.53	90.5671
421.66	94.1594
421.79	98.8864
421.93	103.0427
422.06	98.2874
422.19	95.3063
422.32	96.1674
422.45	100.1959
422.58	93.2230
422.71	91.2216
422.85	96.1319
422.98	97.5983
423.11	95.4401
423.24	97.9564
423.37	100.1317
423.50	97.8143
423.63	97.1250
423.77	94.9336
423.90	91.5605
424.03	93.7060
424.16	97.4210
424.29	98.0978
424.42	101.3640
424.55	103.0391
424.69	102.8186
424.82	103.8887
424.95	98.6615
425.08	97.4218
425.21	99.5199
425.34	98.2674
425.47	96.3048
425.60	100.0150
425.74	99.4863
425.87	97.9980
426.00	101.0638
426.13	100.8719
426.26	101.4283
426.39	97.4563
426.52	100.1900
426.66	104.4576
426.79	95.8350
426.92	92.2463
427.05	99.4648
427.18	100.7612
427.31	97.5052
427.44	102.8195
427.57	108.5204
427.71	105.8221
427.84	99.1226
427.97	96.1287
428.10	101.4384
428.23	106.8504
428.36	99.5976
428.49	98.4288
428.62	101.8231
428.76	103.8904
428.89	96.4618
429.02	97.5878
429.15	104.8737
429.28	104.7456
429.41	100.6401
429.54	97.8608
429.67	104.6337
429.81	106.4253
429.94	101.3869
430.07	94.8537
430.20	99.3371
430.33	99.9605
430.46	97.0989
430.59	102.9746
430.72	107.0448
430.85	107.3950
430.99	103.0061
431.12	99.0302
431.25	99.4957
431.38	103.7098
431.51	97.6634
431.64	98.6961
431.77	104.4075
431.90	105.3975
432.03	101.5585
432.17	103.7100
432.30	107.2202
432.43	104.9975
432.56	101.5833
432.69	99.5251
432.82	101.9823
432.95	100.9173
433.08	101.7963
433.21	101.7245
433.35	106.0952
433.48	104.8388
433.61	106.2919
433.74	103.8113
433.87	106.9054
434.00	105.8081
434.13	105.5829
434.26	102.5803
434.39	105.9558
434.53	104.0734
434.66	105.5773
434.79	101.2827
434.92	105.3897
435.05	105.3412
435.18	100.2880
435.31	98.3038
435.44	104.4323
435.57	106.1899
435.70	103.7300
435.84	101.6502
435.97	103.9749
436.10	104.9022
436.23	100.3103
436.36	100.1784
436.49	106.3204
436.62	103.1874
436.75	100.4976
436.88	100.7785
437.01	104.3835
437.14	104.6439
437.28	101.6114
437.41	99.7443
437.54	103.4149
437.67	106.1296
437.80	98.2185
437.93	99.4112
438.06	105.9313
438.19	105.0635
438.32	99.4224
438.45	102.9719
438.58	104.8312
438.72	103.3778
438.85	101.0786
438.98	100.5551
439.11	103.1884
439.24	103.7373
439.37	99.4920
439.50	101.3853
439.63	104.4839
439.76	106.1898
439.89	106.0502
440.02	104.9391
440.15	104.5974
440.29	105.8841
440.42	102.9765
440.55	99.2281
440.68	105.2097
440.81	106.4566
440.94	100.1054
441.07	101.2624
441.20	106.8523
441.33	103.9306
441.46	101.2629
441.59	105.1768
441.72	106.3182
441.85	104.1717
441.99	100.8800
442.12	100.0067
442.25	99.8052
442.38	101.4533
442.51	100.9784
442.64	102.9735
442.77	104.6368
442.90	105.3948
443.03	103.0329
443.16	100.4531
443.29	102.3009
443.42	100.8592
443.55	100.6502
443.68	100.9339
443.82	104.6772
443.95	101.6776
444.08	102.3681
444.21	100.9708
444.34	100.7026
444.47	99.9367
444.60	102.8470
444.73	100.6577
444.86	101.2202
444.99	102.1223
445.12	103.7082
445.25	101.2082
445.38	102.3127
445.51	104.2008
445.64	107.5187
445.78	100.9860
445.91	100.1401
446.04	104.6571
446.17	101.4557
446.30	96.5323
446.43	103.1312
446.56	105.8103
446.69	100.0240
446.82	98.7892
446.95	100.4605
447.08	100.9266
447.21	98.6723
447.34	99.4335
447.47	101.8181
447.60	99.2077
447.73	97.9016
447.86	99.5479
447.99	99.8080
448.13	101.0998
448.26	101.7114
448.39	99.6761
448.52	100.4698
448.65	101.1385
448.78	98.1684
448.91	100.7068
449.04	100.8257
449.17	99.5757
449.30	100.7067
449.43	99.5890
449.56	97.9993
449.69	102.0017
449.82	100.4712
449.95	97.8434
450.08	100.4638
450.21	101.1887
450.34	97.3791
450.47	99.4222
450.60	101.8917
450.73	103.0931
450.87	101.6971
451.00	96.8742
451.13	97.9366
451.26	96.4742
451.39	94.7039
451.52	95.0103
451.65	100.8010
451.78	101.6782
451.91	99.4294
452.04	97.4632
452.17	100.0319
452.30	100.3718
452.43	95.8327
452.56	100.0116
452.69	99.2437
452.82	96.6889
452.95	97.4876
453.08	96.6002
453.21	95.6972
453.34	97.7103
453.47	94.7521
453.60	92.7758
453.73	95.7774
453.86	94.4560
453.99	95.4725
454.12	97.8270
454.25	99.2023
454.38	98.0101
454.52	98.1163
454.65	98.2919
454.78	97.8277
454.91	96.9882
455.04	98.5569
455.17	95.7640
455.30	95.6924
455.43	98.3285
455.56	96.5360
455.69	94.2468
455.82	97.8194
455.95	96.9431
456.08	95.3402
456.21	97.0628
456.34	97.2995
456.47	96.7129
456.60	96.8888
456.73	94.9157
456.86	94.5736
456.99	95.6013
457.12	93.2873
457.25	92.0980
457.38	92.8948
457.51	92.7146
457.64	92.1505
457.77	93.8265
457.90	94.4098
458.03	94.7188
458.16	94.1149
458.29	95.0876
458.42	95.8214
458.55	96.8256
458.68	95.3974
458.81	92.2969
458.94	93.8384
459.07	95.1158
459.20	93.6939
459.33	92.4219
459.46	95.3442
459.59	95.2931
459.72	91.8182
459.85	91.3692
459.98	94.3353
460.11	96.1076
460.24	92.1777
460.37	93.0835
460.50	94.7572
460.63	94.7460
460.76	91.8895
460.89	92.9875
461.02	94.6403
461.15	94.4390
461.28	91.6305
461.41	94.0188
461.54	94.9709
461.67	92.8939
461.80	92.6331
461.93	93.6837
462.06	93.1285
462.19	93.9704
462.32	93.2511
462.45	93.0512
462.58	93.5853
462.71	93.8388
462.84	91.9704
462.97	92.5327
463.10	91.6743
463.23	92.1686
463.36	93.0731
463.49	93.2392
463.62	93.9113
463.75	94.7851
463.88	96.4742
464.01	92.1461
464.14	93.1961
464.27	94.2602
464.40	93.1272
464.53	91.1796
464.66	92.6998
464.79	92.6547
464.92	91.3891
465.05	91.5779
465.18	91.5723
465.31	93.0118
465.44	92.9482
465.57	90.4024
465.70	91.3577
465.83	93.4142
465.96	92.0037
466.09	90.9585
466.22	94.3794
466.35	94.4604
466.48	92.8122
466.61	92.8283
466.74	92.4076
466.87	91.3521
467.00	90.0174
467.13	91.0144
467.26	92.8571
467.39	93.7117
467.52	92.1617
467.65	93.1599
467.78	91.8927
467.91	90.5413
468.04	90.5675
468.17	93.1854
468.30	93.4872
468.43	93.1629
468.56	92.5011
468.69	93.6922
468.82	93.0970
468.95	92.8871
469.08	93.8303
469.21	93.1207
469.34	90.8479
469.47	91.6247
469.60	91.4322
469.73	90.2171
469.86	93.0888
469.99	94.2879
470.11	92.1257
470.24	91.7121
470.37	92.9545
470.50	92.1836
470.63	91.1371
470.76	90.5937
470.89	92.1493
471.02	92.4767
471.15	90.1621
471.28	89.7900
471.41	91.9451
471.54	92.1030
471.67	89.9948
471.80	91.1063
471.93	92.7180
472.06	93.4656
472.19	90.3121
472.32	90.6255
472.45	91.2275
472.58	90.4609
472.71	89.2734
472.84	91.3620
472.97	90.9134
473.10	91.5678
473.23	90.5679
473.36	90.0137
473.49	89.5208
473.62	90.0291
473.74	89.6227
473.87	91.4711
474.00	91.5620
474.13	91.0680
474.26	91.7968
474.39	91.5355
474.52	90.1526
474.65	91.4121
474.78	92.2033
474.91	90.1522
475.04	89.7462
475.17	90.3833
475.30	88.7533
475.43	88.4508
475.56	90.1067
475.69	91.1294
475.82	90.2774
475.95	91.3103
476.08	91.5056
476.21	91.4345
476.34	89.7600
476.46	90.8597
476.59	90.5591
476.72	90.8977
476.85	89.7941
476.98	90.0179
477.11	90.4069
477.24	89.9212
477.37	88.7517
477.50	89.9750
477.63	90.5976
477.76	89.9475
477.89	89.5624
478.02	89.6182
478.15	89.3973
478.28	89.6867
478.41	88.5290
478.54	89.2279
478.66	89.6825
478.79	89.7047
478.92	89.0298
479.05	90.0093
479.18	89.4319
479.31	89.5794
479.44	89.4610
479.57	89.4772
479.70	90.0951
479.83	90.8076
479.96	89.0698
480.09	88.5163
480.22	88.7825
480.35	88.1401
480.48	87.9588
480.60	88.7188
480.73	89.4062
480.86	89.5818
480.99	89.4027
481.12	88.4142
481.25	89.6280
481.38	89.6382
481.51	88.7422
481.64	88.7514
481.77	89.6625
481.90	89.2317
482.03	88.3071
482.16	88.9480
482.29	89.0164
482.41	89.3399
482.54	89.2976
482.67	89.7120
482.80	90.1269
482.93	89.5807
483.06	88.8674
483.19	89.0678
483.32	89.4562
483.45	88.6136
483.58	88.4410
483.71	88.2582
483.84	87.8617
483.97	87.6575
484.09	87.8179
484.22	88.5753
484.35	88.7959
484.48	88.5573
484.61	88.4998
484.74	88.7700
484.87	88.3371
485.00	88.5783
485.13	88.5510
485.26	88.8737
485.39	87.8768
485.52	87.6234
485.64	87.0702
485.77	87.7315
485.90	87.5329
486.03	88.6740
486.16	88.9073
486.29	89.1076
486.42	88.9402
486.55	88.4714
486.68	87.8776
486.81	88.3194
486.94	88.0831
487.06	87.3208
487.19	87.4985
487.32	87.6798
487.45	87.1104
487.58	87.6315
487.71	87.8320
487.84	87.5769
487.97	87.5003
488.10	88.0464
488.23	87.3694
488.35	87.7097
488.48	88.0739
488.61	88.1337
488.74	87.7399
488.87	87.4008
489.00	87.3165
489.13	87.5013
489.26	87.3906
489.39	87.2954
489.52	87.9044
489.64	87.6183
489.77	87.2900
489.90	87.0085
490.03	87.0922
490.16	87.2752
490.29	86.9723
490.42	87.3185
490.55	87.5168
490.68	88.1130
490.81	87.3558
490.93	87.7112
491.06	87.5104
491.19	87.1213
491.32	86.7504
491.45	87.1329
491.58	87.2024
491.71	87.3857
491.84	87.0258
491.97	86.5967
492.09	86.8822
492.22	86.4472
492.35	86.1129
492.48	86.8965
492.61	86.6765
492.74	86.4189
492.87	86.8850
493.00	86.6020
493.12	86.3286
493.25	86.8246
493.38	87.2126
493.51	86.8164
493.64	86.9317
493.77	87.0502
493.90	86.5294
494.03	86.0587
494.16	86.5965
494.28	87.2268
494.41	86.6629
494.54	86.8130
494.67	87.5335
494.80	87.1582
494.93	86.6421
495.06	87.2781
495.19	87.7007
495.31	87.3930
495.44	87.2623
495.57	87.5279
495.70	87.8834
495.83	87.9095
495.96	87.2092
496.09	87.0277
496.22	87.4870
496.34	87.1639
496.47	86.5093
496.60	86.6019
496.73	87.2008
496.86	86.3033
496.99	86.4056
497.12	86.6781
497.24	86.8014
497.37	86.6972
497.50	87.1153
497.63	86.3347
497.76	85.9862
497.89	86.8129
498.02	86.7033
498.15	86.2592
498.27	86.4401
498.40	86.7436
498.53	86.0158
498.66	86.3729
498.79	86.4873
498.92	86.6646
499.05	86.9125
499.17	86.4254
499.30	86.0380
499.43	86.6139
499.56	86.5430
499.69	86.3192
499.82	87.0083
499.95	87.1592
500.07	86.7129
500.20	86.0285
500.33	86.1503
500.46	86.2810
500.59	86.0245
500.72	85.7099
500.85	86.2364
500.97	86.6013
501.10	86.4597
501.23	85.9517
501.36	86.0669
501.49	86.4928
501.62	85.5721
501.75	85.7400
501.87	86.0886
502.00	85.9481
502.13	85.8652
502.26	86.2026
502.39	86.1225
502.52	86.2071
502.64	85.9793
502.77	85.8420
502.90	86.1911
503.03	86.0489
503.16	85.6208
503.29	86.0348
503.42	86.2450
503.54	86.1405
503.67	85.5212
503.80	86.4187
503.93	86.5199
504.06	85.8983
504.19	85.7721
504.31	86.0537
504.44	85.4965
504.57	85.7111
504.70	85.9132
504.83	85.8648
504.96	85.9815
505.08	85.3895
505.21	84.9063
505.34	85.1264
505.47	85.1311
505.60	85.2369
505.73	85.2222
505.85	85.5788
505.98	85.8839
506.11	85.8918
506.24	85.7030
506.37	85.9836
506.50	85.9630
506.62	85.7087
506.75	85.3832
506.88	85.7936
507.01	86.0922
507.14	85.9788
507.27	85.9193
507.39	86.2844
507.52	85.5547
507.65	85.7249
507.78	85.3096
507.91	84.9728
508.04	84.7141
508.16	85.0345
508.29	85.2645
508.42	85.7724
508.55	85.4579
508.68	85.6509
508.81	85.7910
508.93	85.2521
509.06	84.8583
509.19	85.3960
509.32	85.0066
509.45	84.9416
509.57	84.9792
509.70	85.1848
509.83	85.0571
509.96	85.3134
510.09	85.2822
510.22	85.4754
510.34	84.9052
510.47	84.9622
510.60	84.8372
510.73	84.7238
510.86	84.7251
510.98	85.0360
511.11	84.9737
511.24	85.2666
511.37	85.3465
511.50	85.1812
511.63	85.3831
511.75	85.3592
511.88	85.1752
512.01	85.0738
512.14	85.1495
512.27	85.0450
512.39	84.9565
512.52	84.9988
512.65	85.0939
512.78	84.8795
512.91	84.7396
513.03	84.6925
513.16	84.7029
513.29	84.5382
513.42	84.3572
513.55	84.7863
513.67	85.1209
513.80	84.9007
513.93	84.7638
514.06	85.1104
514.19	84.6638
514.31	84.7275
514.44	84.7323
514.57	84.5745
514.70	84.7967
514.83	85.1297
514.95	84.8467
515.08	84.9038
515.21	85.2026
515.34	85.1365
515.47	84.8994
515.59	84.8853
515.72	84.5402
515.85	84.7127
515.98	84.4326
516.11	84.2703
516.23	84.4248
516.36	84.9282
516.49	84.5076
516.62	84.2426
516.75	84.8425
516.87	84.7854
517.00	84.2386
517.13	84.5280
517.26	85.3526
517.39	84.8865
517.51	84.3180
517.64	84.8618
517.77	84.6389
517.90	84.1554
518.02	84.4404
518.15	84.6783
518.28	84.2958
518.41	84.2519
518.54	84.2124
518.66	84.1272
518.79	84.2925
518.92	84.2856
519.05	84.1191
519.18	84.1357
519.30	84.0005
519.43	84.0744
519.56	83.9868
519.69	84.4460
519.81	84.6832
519.94	84.5956
520.07	84.4595
520.20	84.5349
520.33	84.4199
520.45	84.0733
520.58	83.8520
520.71	83.8139
520.84	84.0320
520.96	84.1138
521.09	83.9543
521.22	84.0494
521.35	84.4204
521.48	84.5268
521.60	84.2967
521.73	83.9781
521.86	84.2059
521.99	84.0680
522.11	83.6326
522.24	83.7436
522.37	83.7769
522.50	84.0250
522.62	83.8638
522.75	84.1609
522.88	84.0378
523.01	84.2682
523.14	83.5962
523.26	83.8841
523.39	83.4935
523.52	83.5921
523.65	83.8388
523.77	84.1442
523.90	83.8053
524.03	84.0472
524.16	84.0332
524.28	83.8736
524.41	84.0734
524.54	84.1309
524.67	83.8558
524.79	83.4540
524.92	83.6803
525.05	83.2881
525.18	83.4638
525.31	83.0297
525.43	83.5531
525.56	83.8607
525.69	83.7990
525.82	83.4150
525.94	84.2117
526.07	84.2166
526.20	83.5107
526.33	83.6159
526.45	83.8423
526.58	83.8581
526.71	83.5156
526.84	83.9001
526.96	83.8951
527.09	83.9183
527.22	84.0354
527.35	83.8267
527.47	83.8835
527.60	83.8213
527.73	83.5668
527.86	83.3275
527.98	83.7945
528.11	83.3531
528.24	83.6571
528.37	83.6982
528.49	83.3215
528.62	83.5387
528.75	83.7800
528.88	83.4812
529.00	83.7155
529.13	84.1188
529.26	83.3546
529.39	83.1016
529.51	83.5207
529.64	83.4691
529.77	83.2474
529.90	83.6562
530.02	84.0605
530.15	83.7955
530.28	83.6479
530.40	83.6350
530.53	83.7306
530.66	83.2766
530.79	83.2409
530.91	83.1937
531.04	83.3218
531.17	83.1483
531.30	83.4115
531.42	82.9592
531.55	83.2617
531.68	83.4392
531.81	83.4809
531.93	83.6834
532.06	84.0753
532.19	83.7576
532.31	83.4787
532.44	83.6953
532.57	83.4822
532.70	83.3354
532.82	83.1957
532.95	83.0979
533.08	82.9717
533.21	83.0669
533.33	83.2202
533.46	82.8678
533.59	83.0888
533.71	83.1464
533.84	83.0743
533.97	83.0033
534.10	83.4178
534.22	83.3709
534.35	82.9246
534.48	82.9026
534.61	83.0183
534.73	82.9425
534.86	82.6906
534.99	83.0144
535.11	83.0593
535.24	83.1449
535.37	83.4385
535.50	83.4506
535.62	83.2394
535.75	83.1771
535.88	82.9234
536.00	82.6503
536.13	82.8071
536.26	83.0767
536.39	82.8267
536.51	82.9901
536.64	83.2639
536.77	83.2545
536.89	83.0571
537.02	83.3039
537.15	83.1507
537.28	83.1445
537.40	82.9428
537.53	82.9377
537.66	83.0424
537.78	83.2604
537.91	83.1576
538.04	83.6582
538.17	83.4135
538.29	82.8677
538.42	82.6105
538.55	82.7018
538.67	82.3176
538.80	82.7692
538.93	82.8623
539.05	82.7757
539.18	82.5504
539.31	82.9025
539.44	82.6417
539.56	82.8651
539.69	83.1683
539.82	83.3121
539.94	82.5836
540.07	82.5993
540.20	82.5887
540.32	82.3530
540.45	82.0005
540.58	82.7337
540.71	83.0557
540.83	83.2162
540.96	83.0224
541.09	83.0790
541.21	83.0708
541.34	82.9558
541.47	82.6921
541.59	82.5295
541.72	82.7162
541.85	82.7718
541.98	82.6604
542.10	82.3147
542.23	82.7135
542.36	82.8098
542.48	82.6600
542.61	82.5243
542.74	82.9801
542.86	83.0754
542.99	82.8599
543.12	82.7761
543.24	82.7126
543.37	82.6795
543.50	82.5303
543.62	82.8090
543.75	82.8627
543.88	82.8479
544.01	82.6861
544.13	82.7467
544.26	82.5557
544.39	82.2888
544.51	82.2274
544.64	82.4318
544.77	82.2169
544.89	82.3059
545.02	82.1682
545.15	82.0077
545.27	81.9614
545.40	82.0156
545.53	82.1426
545.65	82.5862
545.78	82.9130
545.91	82.7812
546.03	83.0300
546.16	82.9174
546.29	82.7218
546.41	82.9144
546.54	82.8657
546.67	82.5209
546.79	82.7182
546.92	82.6234
547.05	82.4447
547.17	82.5113
547.30	82.8136
547.43	82.4445
547.56	82.5935
547.68	82.5049
547.81	82.5130
547.94	82.4732
548.06	82.2988
548.19	82.2977
548.32	82.5015
548.44	82.4678
548.57	82.1894
548.70	82.3997
548.82	82.4154
548.95	82.4423
549.08	82.1276
549.20	82.2651
549.33	82.3354
549.45	82.4398
549.58	82.0717
549.71	82.6349
549.83	82.5930
549.96	82.4350
550.09	82.0854
550.21	82.3447
550.34	82.1027
550.47	82.4341
550.59	82.4155
550.72	82.1190
550.85	82.1297
550.97	82.3110
551.10	81.8387
551.23	81.8980
551.35	82.4875
551.48	82.5966
551.61	82.2447
551.73	82.3284
551.86	82.4016
551.99	81.9554
552.11	81.5994
552.24	81.8872
552.37	82.0206
552.49	81.9471
552.62	82.2266
552.75	82.4613
552.87	82.3214
553.00	82.3239
553.12	82.1873
553.25	81.8938
553.38	81.6991
553.50	81.8506
553.63	81.6782
553.76	81.7964
553.88	82.1135
554.01	82.1227
554.14	81.8213
554.26	82.0744
554.39	82.0921
554.52	82.0807
554.64	82.0573
554.77	82.1232
554.89	81.9230
555.02	81.8864
555.15	81.7763
555.27	81.5582
555.40	81.7227
555.53	81.9714
555.65	81.7956
555.78	81.5743
555.91	81.9985
556.03	82.0671
556.16	81.7190
556.29	81.6238
556.41	82.0133
556.54	81.9844
556.66	81.4563
556.79	81.5216
556.92	81.9744
557.04	81.6998
557.17	81.4325
557.30	81.7072
557.42	81.5282
557.55	81.2733
557.67	81.2151
557.80	81.1922
557.93	81.4422
558.05	81.5824
558.18	81.4408
558.31	81.3752
558.43	81.4650
558.56	81.4160
558.68	81.3943
558.81	81.1516
558.94	81.3937
559.06	81.4321
559.19	81.3302
559.32	81.3195
559.44	81.7099
559.57	81.6614
559.69	81.4564
559.82	81.3592
559.95	81.5823
560.07	81.4877
560.20	81.1995
560.33	81.4242
560.45	81.1068
560.58	80.9875
560.70	81.0130
560.83	81.1026
560.96	80.7806
561.08	81.2093
561.21	81.3608
561.33	81.0768
561.46	81.2450
561.59	81.4907
561.71	81.4360
561.84	81.1158
561.97	81.5347
562.09	81.5341
562.22	81.3398
562.34	81.2872
562.47	81.4364
562.60	81.3512
562.72	81.2139
562.85	81.3827
562.97	81.3828
563.10	81.3460
563.23	81.1546
563.35	81.0803
563.48	80.8358
563.60	80.9504
563.73	81.0058
563.86	81.1296
563.98	81.3717
564.11	81.3794
564.23	81.3087
564.36	81.1441
564.49	81.2629
564.61	81.2942
564.74	81.3686
564.86	81.3032
564.99	81.2380
565.12	81.1551
565.24	80.9523
565.37	80.8689
565.49	80.8438
565.62	81.1927
565.75	80.6342
565.87	80.5742
566.00	80.9557
566.12	80.7405
566.25	80.5527
566.38	80.8926
566.50	80.9306
566.63	80.7943
566.75	81.0846
566.88	81.0637
567.01	81.2779
567.13	81.5021
567.26	81.2758
567.38	81.3017
567.51	81.1922
567.64	80.9861
567.76	80.8479
567.89	81.0326
568.01	80.8010
568.14	80.8385
568.26	80.9835
568.39	80.8606
568.52	80.8150
568.64	80.9038
568.77	80.8472
568.89	80.8952
569.02	80.9927
569.15	80.8434
569.27	80.6434
569.40	80.6639
569.52	80.5684
569.65	80.5815
569.77	80.7646
569.90	80.6392
570.03	80.7681
570.15	80.8337
570.28	81.0297
570.40	80.9645
570.53	81.2146
570.66	81.1920
570.78	81.2570
570.91	80.9726
571.03	80.9321
571.16	81.0314
571.28	80.9292
571.41	80.9228
571.54	80.8839
571.66	80.8718
571.79	80.8616
571.91	80.7672
572.04	80.4073
572.16	80.4832
572.29	80.4872
572.42	80.5181
572.54	80.5135
572.67	80.8210
572.79	80.8548
572.92	80.8708
573.04	80.9616
573.17	81.2468
573.29	80.8981
573.42	80.7302
573.55	80.7600
573.67	80.7248
573.80	80.6494
573.92	80.7613
574.05	80.8402
574.17	80.8557
574.30	80.8804
574.43	80.7289
574.55	80.9422
574.68	81.0013
574.80	81.0882
574.93	81.0615
575.05	81.1611
575.18	80.9980
575.30	80.8231
575.43	80.8086
575.56	80.7140
575.68	80.7572
575.81	80.6622
575.93	80.7255
576.06	80.7414
576.18	80.8196
576.31	80.4250
576.43	80.5421
576.56	80.6855
576.69	80.7355
576.81	80.6941
576.94	80.9524
577.06	81.0218
577.19	80.8731
577.31	80.4650
577.44	80.4131
577.56	80.2697
577.69	80.3304
577.82	80.6674
577.94	80.7359
578.07	80.5313
578.19	80.8977
578.32	80.9252
578.44	80.6470
578.57	80.9253
578.69	81.0611
578.82	80.8182
578.94	80.7813
579.07	80.8556
579.19	80.7934
579.32	81.0097
579.45	81.2606
579.57	81.1914
579.70	81.2710
579.82	81.0774
579.95	81.0455
580.07	80.8305
580.20	80.8301
580.32	80.7395
580.45	80.8952
580.57	80.7135
580.70	80.6234
580.82	80.9926
580.95	80.7790
581.08	80.7998
581.20	80.7734
581.33	80.8181
581.45	80.2185
581.58	80.6187
581.70	80.4876
581.83	80.4441
581.95	80.5608
582.08	80.8769
582.20	80.7583
582.33	80.9302
582.45	80.9116
582.58	80.8934
582.70	80.8477
582.83	80.6921
582.95	80.5744
583.08	80.5806
583.21	80.6058
583.33	80.8454
583.46	80.8828
583.58	80.8185
583.71	80.9863
583.83	80.9815
583.96	80.7164
584.08	80.6565
584.21	80.8152
584.33	80.9104
584.46	80.6626
584.58	80.4843
584.71	80.6510
584.83	80.7747
584.96	80.4955
585.08	80.5017
585.21	80.6835
585.33	80.5466
585.46	80.5154
585.58	80.7036
585.71	80.7086
585.83	80.8261
585.96	80.7927
586.08	80.5885
586.21	80.7296
586.33	80.8311
586.46	80.8120
586.59	80.8036
586.71	80.7641
586.84	80.7198
586.96	80.8099
587.09	80.3848
587.21	80.4537
587.34	80.6915
587.46	80.4491
587.59	80.4460
587.71	81.0086
587.84	81.1531
587.96	80.8787
588.09	80.9255
588.21	80.8567
588.34	80.6572
588.46	80.5861
588.59	80.8104
588.71	80.9088
588.84	80.6442
588.96	80.6574
589.09	80.8368
589.21	80.8724
589.34	80.7576
589.46	80.9808
589.59	81.1727
589.71	81.0748
589.84	80.9302
589.96	80.9144
590.09	80.9612
590.21	80.7489
590.34	80.8497
590.46	80.9016
590.59	80.8070
590.71	81.0297
590.84	80.8854
590.96	80.6617
591.09	80.7108
591.21	81.0420
591.34	80.6281
591.46	80.7018
591.59	80.6356
591.71	80.7916
591.83	80.6438
591.96	80.8819
592.08	80.9293
592.21	81.0875
592.33	81.0285
592.46	80.9549
592.58	80.8352
592.71	80.8683
592.83	80.6016
592.96	80.5421
593.08	80.7292
593.21	80.8638
593.33	80.8784
593.46	80.9099
593.58	80.7357
593.71	80.7806
593.83	80.4928
593.96	80.4250
594.08	80.6704
594.21	80.7676
594.33	80.8110
594.46	81.2574
594.58	81.3351
594.71	81.2554
594.83	80.7822
594.96	80.5370
595.08	80.4894
595.20	80.5973
595.33	80.1960
595.45	80.6255
595.58	80.8682
595.70	80.8256
595.83	80.6342
595.95	81.1029
596.08	81.3101
596.20	81.1987
596.33	81.2905
596.45	81.5606
596.58	81.4642
596.70	81.3850
596.83	81.3128
596.95	81.4035
597.08	81.2342
597.20	81.2008
597.32	81.1025
597.45	81.1149
597.57	81.0079
597.70	80.9712
597.82	81.1246
597.95	81.1677
598.07	81.2027
598.20	81.2404
598.32	81.1851
598.45	80.9957
598.57	81.0798
598.70	81.1423
598.82	80.8549
598.94	80.8197
599.07	80.9368
599.19	81.1636
599.32	80.8919
599.44	81.0218
599.57	81.1575
599.69	81.3177
599.82	80.7491
599.94	80.8886
600.07	81.0802
600.19	81.1425
600.31	80.6661
600.44	80.7985
600.56	80.9234
600.69	80.8292
600.81	80.7860
600.94	81.0160
601.06	81.0004
601.19	81.1472
601.31	80.8919
601.44	80.7873
601.56	80.8225
601.68	80.9326
601.81	80.5104
601.93	80.8383
602.06	81.0649
602.18	80.9259
602.31	80.8402
602.43	81.0952
602.56	81.0237
602.68	80.7635
602.80	81.0631
602.93	81.1246
603.05	81.0428
603.18	81.0908
603.30	81.2435
603.43	81.0300
603.55	80.9992
603.68	80.9840
603.80	80.8411
603.92	80.7605
604.05	81.0066
604.17	81.0896
604.30	81.0880
604.42	80.9806
604.55	81.0409
604.67	80.9221
604.79	80.8539
604.92	80.9633
605.04	81.1510
605.17	81.1604
605.29	80.9610
605.42	81.1035
605.54	81.0245
605.66	80.9923
605.79	80.9158
605.91	81.2078
606.04	81.0519
606.16	81.1065
606.29	81.2895
606.41	81.5053
606.53	81.3775
606.66	81.6078
606.78	81.6974
606.91	81.5540
607.03	81.5143
607.16	81.4358
607.28	81.1957
607.40	81.1658
607.53	81.2283
607.65	81.2331
607.78	81.1532
607.90	81.3978
608.03	81.3570
608.15	81.4586
608.27	81.4391
608.40	81.7044
608.52	81.4269
608.65	81.6273
608.77	81.3955
608.89	81.1330
609.02	81.1825
609.14	81.2501
609.27	81.1289
609.39	81.4996
609.52	81.7077
609.64	81.6686
609.76	81.5946
609.89	81.3150
610.01	81.0931
610.14	81.1686
610.26	80.9518
610.38	81.2532
610.51	81.5868
610.63	81.5033
610.76	81.4155
610.88	81.3473
611.01	81.1966
611.13	81.2335
611.25	81.3588
611.38	81.4933
611.50	81.7185
611.63	81.8559
611.75	81.7463
611.87	81.4715
612.00	81.3571
612.12	81.6027
612.25	81.5469
612.37	81.5670
612.49	81.6005
612.62	81.6982
612.74	81.5289
612.87	81.6692
612.99	81.5787
613.11	81.5924
613.24	81.5423
613.36	81.5519
613.49	81.4608
613.61	81.4168
613.73	81.7181
613.86	81.7863
613.98	81.6919
614.11	81.5449
614.23	81.5522
614.35	81.4253
614.48	81.3494
614.60	81.3187
614.72	81.4317
614.85	81.5561
614.97	81.6264
615.10	81.5650
615.22	81.5855
615.34	81.7155
615.47	81.7194
615.59	81.6757
615.72	81.9977
615.84	81.8085
615.96	81.7647
616.09	81.9660
616.21	81.9091
616.34	81.6462
616.46	81.9469
616.58	81.8469
616.71	81.5614
616.83	81.4624
616.95	81.5133
617.08	81.6100
617.20	81.7962
617.33	81.7530
617.45	81.9787
617.57	82.0840
617.70	81.9250
617.82	81.6737
617.95	81.8306
618.07	81.6935
618.19	81.4822
618.32	81.6362
618.44	81.8968
618.56	82.0970
618.69	81.9968
618.81	82.1679
618.94	82.0679
619.06	81.9428
619.18	81.8557
619.31	81.9050
619.43	81.7063
619.55	81.9817
619.68	82.1053
619.80	81.6856
619.92	81.6334
620.05	81.9576
620.17	81.9582
620.30	81.7837
620.42	82.1303
620.54	82.4187
620.67	82.3452
620.79	81.9795
620.91	82.1026
621.04	82.1867
621.16	82.3224
621.29	82.2790
621.41	82.4606
621.53	82.5952
621.66	82.3739
621.78	81.8878
621.90	82.0317
622.03	82.1180
622.15	82.0044
622.27	82.2635
622.40	82.4739
622.52	82.5415
622.64	82.4741
622.77	82.2172
622.89	82.1550
623.02	82.2691
623.14	82.1200
623.26	82.0320
623.39	82.4205
623.51	82.6557
623.63	82.5173
623.76	82.4807
623.88	82.6832
624.00	82.5635
624.13	82.4278
624.25	82.4730
624.37	82.3428
624.50	82.5393
624.62	82.8015
624.75	82.6105
624.87	82.8330
624.99	83.0413
625.12	82.3826
625.24	82.0959
625.36	82.2245
625.49	82.0426
625.61	81.8606
625.73	82.3962
625.86	82.4777
625.98	82.5641
626.10	82.4949
626.23	82.5710
626.35	82.5162
626.47	82.4987
626.60	82.4267
626.72	82.4575
626.84	82.6228
626.97	82.6865
627.09	82.3855
627.21	82.2098
627.34	82.5353
627.46	82.5255
627.58	82.2918
627.71	82.9733
627.83	83.0429
627.95	82.5382
628.08	82.5479
628.20	82.8676
628.32	82.6381
628.45	82.7789
628.57	83.0993
628.69	82.9544
628.82	82.9835
628.94	82.9743
629.06	82.9119
629.19	83.1289
629.31	83.2273
629.43	83.0825
629.56	82.8811
629.68	83.0827
629.80	83.0272
629.93	83.0908
630.05	83.0502
630.17	83.3575
630.30	83.2003
630.42	83.2396
630.54	83.4114
630.67	83.2143
630.79	83.1741
630.91	83.2494
631.04	83.2121
631.16	83.1770
631.28	83.5805
631.41	83.3930
631.53	83.2882
631.65	83.1372
631.78	82.9793
631.90	83.1375
632.02	83.0844
632.14	83.2277
632.27	83.4070
632.39	83.1753
632.51	82.9101
632.64	83.1270
632.76	83.1071
632.88	83.1065
633.01	83.3123
633.13	82.9047
633.25	83.0265
633.38	83.0975
633.50	83.0438
633.62	83.2212
633.75	83.4887
633.87	83.3651
633.99	83.4785
634.11	83.3977
634.24	83.3632
634.36	83.5232
634.48	83.2941
634.61	83.2660
634.73	83.3818
634.85	83.3634
634.98	83.3972
635.10	83.2781
635.22	83.1729
635.35	83.4482
635.47	83.5008
635.59	83.4385
635.71	83.7289
635.84	83.6593
635.96	83.5728
636.08	83.5086
636.21	83.4863
636.33	83.7420
636.45	84.0580
636.58	83.7012
636.70	83.8275
636.82	84.2096
636.94	83.9715
637.07	83.6903
637.19	83.8911
637.31	84.0408
637.44	83.7887
637.56	83.8800
637.68	84.0027
637.81	84.4412
637.93	84.1576
638.05	83.7664
638.17	83.8421
638.30	83.8939
638.42	83.4614
638.54	83.5279
638.67	83.8484
638.79	83.8998
638.91	83.8977
639.03	84.0050
639.16	84.0673
639.28	84.2008
639.40	83.8944
639.53	83.9043
639.65	83.9763
639.77	83.8672
639.89	83.7596
640.02	84.0946
640.14	83.8127
640.26	83.7798
640.39	83.9044
640.51	83.7800
640.63	83.5896
640.75	83.9089
640.88	83.9026
641.00	83.4985
641.12	83.8735
641.24	84.2719
641.37	83.8998
641.49	84.0155
641.61	84.4316
641.74	84.4281
641.86	84.0110
641.98	84.2675
642.10	84.2174
642.23	84.1706
642.35	83.9116
642.47	83.8890
642.60	84.0590
642.72	83.9716
642.84	83.9566
642.96	84.0141
643.09	84.2388
643.21	84.2288
643.33	84.2050
643.45	84.0747
643.58	84.2826
643.70	84.2640
643.82	84.2463
643.94	84.3428
644.07	84.4945
644.19	84.2738
644.31	84.3111
644.44	84.2803
644.56	84.2791
644.68	84.3634
644.80	84.5080
644.93	84.3810
645.05	84.4281
645.17	84.4695
645.29	84.5085
645.42	84.3285
645.54	84.3657
645.66	84.4138
645.78	84.3148
645.91	84.0363
646.03	84.2625
646.15	84.3753
646.27	84.3359
646.40	84.2603
646.52	84.6326
646.64	84.8046
646.76	84.6438
646.89	84.5502
647.01	84.5191
647.13	84.6661
647.25	84.5019
647.38	84.4425
647.50	84.7365
647.62	85.0929
647.74	84.6686
647.87	84.3950
647.99	84.5866
648.11	84.5683
648.23	84.2586
648.36	84.4949
648.48	84.8811
648.60	85.1174
648.72	84.6987
648.85	84.8879
648.97	84.9484
649.09	84.8396
649.21	84.6200
649.34	84.8795
649.46	84.8959
649.58	84.9695
649.70	84.8035
649.83	84.7448
649.95	84.6810
650.07	84.6104
650.19	84.3525
650.32	84.3847
650.44	84.4718
650.56	84.5187
650.68	84.5752
650.81	84.5060
650.93	84.6158
651.05	84.4846
651.17	84.5233
651.29	84.4823
651.42	84.7598
651.54	84.9392
651.66	84.9539
651.78	84.4857
651.91	84.5149
652.03	84.5817
652.15	84.4373
652.27	84.6825
652.40	85.2564
652.52	85.5133
652.64	85.0594
652.76	85.0903
652.88	85.0884
653.01	85.2731
653.13	84.9606
653.25	85.1470
653.37	85.1460
653.50	85.2612
653.62	84.7824
653.74	84.7579
653.86	85.0730
653.98	85.1302
654.11	84.9978
654.23	84.9129
654.35	85.0137
654.47	84.9708
654.60	85.1467
654.72	84.8248
654.84	85.1465
654.96	85.2269
655.08	85.1735
655.21	84.8826
655.33	85.1994
655.45	85.3246
655.57	85.2215
655.70	85.0102
655.82	85.0961
655.94	85.3671
656.06	85.1294
656.18	85.0749
656.31	85.3385
656.43	85.4190
656.55	85.1557
656.67	85.1513
656.79	85.4389
656.92	85.5289
657.04	85.1940
657.16	85.2530
657.28	85.3125
657.40	85.3613
657.53	85.1706
657.65	85.1956
657.77	85.2558
657.89	85.4702
658.01	85.1682
658.14	85.2390
658.26	85.6748
658.38	85.6101
658.50	85.1322
658.62	85.3025
658.75	85.2175
658.87	85.3011
658.99	85.2945
659.11	85.3509
659.23	85.4110
659.36	85.5086
659.48	85.3196
659.60	85.3370
659.72	85.6127
659.84	85.5712
659.97	85.1050
660.09	84.8398
660.21	84.9766
660.33	85.2005
660.45	85.0680
660.58	85.2894
660.70	85.6695
660.82	85.4035
660.94	84.9832
661.06	84.9443
661.19	85.2512
661.31	85.1591
661.43	85.1163
661.55	85.1793
661.67	85.4696
661.80	85.3654
661.92	85.2973
662.04	85.3444
662.16	85.6724
662.28	85.5627
662.40	85.4838
662.53	85.6447
662.65	85.5981
662.77	85.6237
662.89	85.8109
663.01	85.9656
663.14	85.8214
663.26	86.1618
663.38	85.9733
663.50	85.5632
663.62	85.4840
663.74	85.5302
663.87	85.2339
663.99	84.8354
664.11	85.0666
664.23	85.2173
664.35	85.0789
664.48	85.2891
664.60	85.8891
664.72	86.0108
664.84	85.8262
664.96	86.0843
665.08	86.0025
665.21	86.1909
665.33	86.0606
665.45	85.9956
665.57	85.9067
665.69	85.9644
665.81	85.7039
665.94	85.5693
666.06	85.6261
666.18	85.8032
666.30	85.5619
666.42	85.3612
666.54	85.5461
666.67	85.3955
666.79	85.1527
666.91	85.4606
667.03	85.5949
667.15	85.6140
667.27	85.9498
667.40	85.7363
667.52	85.6004
667.64	85.7745
667.76	85.5715
667.88	85.3163
668.00	85.5151
668.13	85.5859
668.25	85.5008
668.37	85.4832
668.49	85.8169
668.61	85.9932
668.73	85.9369
668.85	85.7757
668.98	86.0936
669.10	85.8731
669.22	85.5186
669.34	85.6728
669.46	85.6717
669.58	85.4050
669.71	85.5715
669.83	85.7538
669.95	85.6283
670.07	85.6410
670.19	85.8816
670.31	85.8290
670.43	85.7159
670.56	85.6542
670.68	85.8652
670.80	85.4519
670.92	85.4073
671.04	85.6910
671.16	85.8241
671.28	85.5415
671.41	85.9558
671.53	86.2857
671.65	85.8862
671.77	85.6600
671.89	85.9247
672.01	86.1032
672.13	85.7548
672.26	86.2353
672.38	86.2719
672.50	86.0305
672.62	85.6258
672.74	85.6949
672.86	85.4712
672.98	85.6177
673.11	85.5502
673.23	85.7951
673.35	85.8373
673.47	86.1602
673.59	86.0566
673.71	85.8354
673.83	85.6977
673.96	85.8493
674.08	85.4732
674.20	85.4932
674.32	85.9364
674.44	86.0220
674.56	85.6213
674.68	85.5972
674.80	85.7882
674.93	85.8072
675.05	85.6428
675.17	85.7288
675.29	85.8704
675.41	85.7277
675.53	85.6637
675.65	85.5542
675.77	85.7056
675.90	85.8845
676.02	85.6287
676.14	85.3776
676.26	85.7054
676.38	85.6919
676.50	85.6444
676.62	86.1868
676.74	86.4089
676.87	86.0783
676.99	85.9573
677.11	85.8454
677.23	85.5978
677.35	85.8103
677.47	86.0633
677.59	86.0241
677.71	86.0141
677.83	85.8658
677.96	85.7377
678.08	85.7890
678.20	86.0046
678.32	86.0851
678.44	85.8788
678.56	85.7874
678.68	85.8798
678.80	85.8087
678.93	85.6614
679.05	85.7734
679.17	85.8752
679.29	85.7964
679.41	85.8158
679.53	85.8055
679.65	86.0143
679.77	85.9461
679.89	85.6363
680.01	85.8591
680.14	86.1092
680.26	85.9933
680.38	85.9117
680.50	86.1289
680.62	85.8897
680.74	85.7393
680.86	85.8440
680.98	85.5565
681.10	85.5921
681.22	85.7215
681.35	85.8593
681.47	85.3498
681.59	85.7454
681.71	85.8268
681.83	85.4859
681.95	85.0752
682.07	85.5718
682.19	85.6267
682.31	85.2409
682.43	85.5578
682.56	85.8460
682.68	85.8689
682.80	85.6839
682.92	85.9884
683.04	86.0064
683.16	85.7712
683.28	85.7280
683.40	85.7888
683.52	85.8290
683.64	85.7843
683.76	86.0382
683.89	85.9032
684.01	85.9066
684.13	85.8402
684.25	85.6832
684.37	85.7087
684.49	85.6678
684.61	85.7838
684.73	85.9636
684.85	85.7796
684.97	85.8376
685.09	86.2850
685.21	85.9603
685.34	85.8812
685.46	86.1892
685.58	85.8728
685.70	85.8281
685.82	86.1566
685.94	86.0941
686.06	86.0099
686.18	86.2099
686.30	85.9484
686.42	86.0316
686.54	85.7256
686.66	85.7901
686.79	85.4895
686.91	85.4896
687.03	85.5715
687.15	85.9825
687.27	85.7716
687.39	86.1296
687.51	86.2295
687.63	85.9390
687.75	85.4845
687.87	85.8239
687.99	85.6403
688.11	85.3598
688.23	85.4566
688.35	85.8550
688.48	85.7472
688.60	85.7324
688.72	85.9752
688.84	86.0909
688.96	86.1596
689.08	85.6809
689.20	85.7565
689.32	85.9556
689.44	86.0468
689.56	85.8607
689.68	86.2727
689.80	86.2685
689.92	86.0578
690.04	85.8197
690.16	85.7756
690.28	86.0701
690.41	85.9879
690.53	85.6894
690.65	85.5396
690.77	85.5570
690.89	85.2551
691.01	85.4174
691.13	85.6287
691.25	85.8817
691.37	86.2205
691.49	85.9448
691.61	85.8584
691.73	86.1748
691.85	86.2749
691.97	85.7582
692.09	85.9758
692.21	85.8785
692.33	85.9057
692.45	85.7300
692.57	85.7021
692.70	85.9542
692.82	86.1016
692.94	85.7850
693.06	85.8670
693.18	86.2928
693.30	85.9250
693.42	85.8966
693.54	86.0559
693.66	86.2278
693.78	86.0004
693.90	86.2732
694.02	86.4945
694.14	86.4307
694.26	85.9812
694.38	85.9263
694.50	85.9732
694.62	85.8650
694.74	85.7956
694.86	86.0013
694.98	85.9552
695.10	85.9738
695.22	85.8815
695.34	85.9650
695.46	85.8955
695.58	86.1136
695.71	86.0777
695.83	85.8129
695.95	85.9279
696.07	86.1081
696.19	86.1923
696.31	85.8695
696.43	86.0969
696.55	86.1488
696.67	86.1283
696.79	86.0843
696.91	86.0006
697.03	86.0572
697.15	86.0451
697.27	85.6848
697.39	85.6224
697.51	85.9090
697.63	85.5370
697.75	85.3683
697.87	85.7360
697.99	85.6284
698.11	85.6092
698.23	85.9259
698.35	85.8816
698.47	85.9639
698.59	85.7494
698.71	85.8543
698.83	85.9065
698.95	85.9647
699.07	85.7315
699.19	86.1105
699.31	85.9819
699.43	86.0575
699.55	86.1025
699.67	86.2101
699.79	86.0925
699.91	86.1013
700.03	85.9701
700.15	85.8820
700.27	86.0494
700.39	85.9761
700.51	86.0237
700.63	85.8929
700.75	86.0719
700.87	85.8071
700.99	86.0680
701.11	86.0415
701.24	85.9627
701.36	85.7920
701.48	86.0345
701.60	85.6502
701.72	85.7986
701.84	86.2613
701.96	86.2065
702.08	85.9104
702.20	86.1749
702.32	86.2068
702.44	86.1394
702.56	86.2963
702.68	86.1413
702.80	86.0601
702.92	86.0882
703.04	86.0861
703.16	86.2902
703.28	86.6386
703.40	86.6787
703.52	86.5005
703.64	86.3454
703.76	86.1484
703.88	86.1218
704.00	85.9490
704.12	86.0080
704.24	85.9556
704.36	86.0066
704.48	85.8503
704.60	86.0186
704.72	85.7495
704.84	85.7933
704.96	85.9176
705.07	86.1446
705.19	86.0665
705.31	86.4620
705.43	86.3944
705.55	86.1904
705.67	86.3414
705.79	86.5431
705.91	86.3319
706.03	86.3664
706.15	86.5063
706.27	86.2265
706.39	86.2400
706.51	86.3498
706.63	86.3985
706.75	86.1342
706.87	86.2160
706.99	86.3450
707.11	86.3312
707.23	86.3275
707.35	86.3866
707.47	86.2474
707.59	86.1450
707.71	86.1174
707.83	86.2738
707.95	86.0457
708.07	86.1394
708.19	86.4091
708.31	86.4278
708.43	86.2311
708.55	86.5819
708.67	86.5204
708.79	86.1702
708.91	86.0613
709.03	86.2584
709.15	86.1806
709.27	86.2408
709.39	86.1306
709.51	86.1634
709.63	86.2935
709.75	86.1816
709.87	86.1676
709.99	86.3618
710.11	86.6231
710.23	86.0582
710.35	86.1197
710.47	86.1682
710.58	85.9378
710.70	85.7479
710.82	86.0889
710.94	86.0828
711.06	86.1367
711.18	86.0188
711.30	85.8768
711.42	85.8277
711.54	86.1971
711.66	86.0918
711.78	86.0453
711.90	86.3696
712.02	86.7092
712.14	86.1795
712.26	85.9269
712.38	86.3328
712.50	86.2935
712.62	86.0680
712.74	85.9313
712.86	86.3051
712.98	86.2543
713.10	85.9392
713.22	85.7619
713.34	86.0732
713.45	86.0122
713.57	85.8959
713.69	86.0498
713.81	86.3423
713.93	86.8336
714.05	86.6832
714.17	86.6355
714.29	86.9512
714.41	86.8435
714.53	86.5152
714.65	86.9088
714.77	86.7292
714.89	86.5096
715.01	86.4897
715.13	86.4295
715.25	86.2976
715.37	86.4068
715.49	86.3178
715.61	86.0791
715.72	86.1678
715.84	86.1474
715.96	86.1128
716.08	86.0676
716.20	86.3331
716.32	86.2609
716.44	86.1641
716.56	86.0543
716.68	86.0975
716.80	86.1852
716.92	86.2448
717.04	86.3095
717.16	86.7838
717.28	86.7265
717.40	86.5693
717.52	86.5150
717.63	86.4728
717.75	86.3820
717.87	86.6229
717.99	86.4541
718.11	86.3273
718.23	86.2508
718.35	86.4234
718.47	86.2651
718.59	86.4932
718.71	86.4702
718.83	86.7959
718.95	86.5635
719.07	86.6211
719.19	86.6050
719.30	86.7428
719.42	86.4956
719.54	86.4554
719.66	86.6100
719.78	86.5144
719.90	86.5218
720.02	86.4012
720.14	86.4413
720.26	86.2777
720.38	86.6074
720.50	86.4497
720.62	86.7961
720.74	86.7400
720.85	86.4695
720.97	86.4521
721.09	86.5403
721.21	86.4022
721.33	86.5832
721.45	86.8838
721.57	87.0558
721.69	86.8800
721.81	86.5888
721.93	86.6790
722.05	86.8643
722.16	86.5483
722.28	86.5831
722.40	86.5774
722.52	86.7437
722.64	86.5531
722.76	86.4104
722.88	86.7913
723.00	86.9772
723.12	86.9618
723.24	86.7181
723.36	86.7034
723.47	86.6089
723.59	86.6066
723.71	86.5299
723.83	86.8289
723.95	86.7794
724.07	86.3691
724.19	86.6106
724.31	86.7552
724.43	86.8714
724.55	86.4662
724.66	87.0094
724.78	87.0533
724.90	86.7116
725.02	86.4783
725.14	87.3571
725.26	87.1564
725.38	86.8133
725.50	86.7388
725.62	86.9674
725.74	87.1288
725.85	87.3505
725.97	86.2548
726.09	86.6258
726.21	86.8262
726.33	86.5725
726.45	86.4021
726.57	87.6759
726.69	87.3079
726.81	86.9292
726.92	86.6562
727.04	86.6754
727.16	86.7249
727.28	86.9059
727.40	86.4984
727.52	86.3569
727.64	86.2969
727.76	86.3560
727.88	86.2498
727.99	86.5947
728.11	86.8174
728.23	86.8752
728.35	86.7029
728.47	86.6373
728.59	86.8709
728.71	86.8748
728.83	86.6456
728.94	86.5184
729.06	86.6040
729.18	86.5068
729.30	86.3572
729.42	86.3978
729.54	86.6703
729.66	86.5435
729.78	86.4032
729.90	86.7777
730.01	86.8651
730.13	86.8725
730.25	86.8699
730.37	87.0167
730.49	86.8184
730.61	86.7925
730.73	86.7353
730.84	86.7898
730.96	86.9468
731.08	87.0791
731.20	86.5739
731.32	86.6413
731.44	86.7434
731.56	86.3472
731.68	86.1702
731.79	86.8337
731.91	86.5828
732.03	86.5972
732.15	86.7846
732.27	86.5867
732.39	86.6811
732.51	87.0179
732.62	86.6958
732.74	86.7499
732.86	87.1189
732.98	86.9286
733.10	86.4718
733.22	87.0231
733.34	86.9337
733.45	86.8409
733.57	86.7953
733.69	87.0354
733.81	86.8122
733.93	86.7595
734.05	86.6762
734.17	86.7596
734.28	87.0488
734.40	87.0935
734.52	86.8045
734.64	86.8671
734.76	87.1166
734.88	86.7903
735.00	86.3329
735.11	86.8849
735.23	87.1738
735.35	86.6629
735.47	86.7557
735.59	87.1327
735.71	86.7797
735.83	86.3711
735.94	86.5032
736.06	86.3500
736.18	86.2893
736.30	86.7013
736.42	86.8654
736.54	86.4186
736.65	86.6350
736.77	86.8366
736.89	86.1087
737.01	86.4088
737.13	87.1101
737.25	86.9275
737.36	86.7212
737.48	87.3630
737.60	86.9917
737.72	86.5516
737.84	86.7459
737.96	86.6548
738.08	86.7945
738.19	86.8306
738.31	87.2932
738.43	87.1999
738.55	87.5785
738.67	87.4147
738.79	87.3618
738.90	87.4312
739.02	87.6048
739.14	87.2525
739.26	86.9890
739.38	87.2459
739.50	87.1214
739.61	87.0056
739.73	87.0639
739.85	87.0095
739.97	87.2248
740.09	87.2185
740.20	87.0927
740.32	87.5136
740.44	87.8323
740.56	87.5297
740.68	87.5142
740.80	87.4441
740.91	87.0854
741.03	87.1667
741.15	86.9426
741.27	86.9228
741.39	86.8759
741.51	86.9774
741.62	86.9105
741.74	87.1359
741.86	87.1466
741.98	87.3688
742.10	87.3112
742.21	87.4063
742.33	87.0178
742.45	87.0626
742.57	86.9705
742.69	87.1236
742.80	87.0935
742.92	87.5581
743.04	87.2294
743.16	87.5758
743.28	87.5371
743.40	87.6124
743.51	87.5289
743.63	87.8748
743.75	87.6050
743.87	87.4792
743.99	87.2643
744.10	87.3656
744.22	87.1648
744.34	87.0064
744.46	87.2659
744.58	87.0587
744.69	86.9259
744.81	87.3654
744.93	87.2915
745.05	86.8532
745.17	87.1939
745.28	87.2537
745.40	87.0429
745.52	87.2068
745.64	87.5868
745.76	87.7291
745.87	87.4650
745.99	87.5123
746.11	87.6735
746.23	87.7380
746.35	87.0327
746.46	87.1556
746.58	87.0678
746.70	87.0660
746.82	87.1070
746.94	87.8504
747.05	88.1590
747.17	88.4045
747.29	87.9094
747.41	88.0892
747.53	87.9697
747.64	87.6194
747.76	87.1651
747.88	87.6859
748.00	87.5376
748.12	87.5805
748.23	87.6637
748.35	87.8506
748.47	88.0492
748.59	88.0554
748.70	88.0270
748.82	88.1875
748.94	88.1895
749.06	88.1616
749.18	87.8718
749.29	87.8687
749.41	87.9584
749.53	87.9659
749.65	88.0819
749.76	88.3843
749.88	88.1720
750.00	87.9068
750.12	88.0258
750.24	87.9770
750.35	87.5858
750.47	87.8309
750.59	87.7411
750.71	88.0149
750.82	87.9141
750.94	88.1014
751.06	87.9678
751.18	88.0821
751.30	87.5788
751.41	87.5014
751.53	87.6519
751.65	87.5082
751.77	87.4836
751.88	88.0644
752.00	87.8183
752.12	87.7467
752.24	87.9589
752.35	87.9670
752.47	87.3887
752.59	87.8950
752.71	87.5517
752.83	87.7447
752.94	87.7877
753.06	87.9522
753.18	87.7460
753.30	88.0989
753.41	87.8658
753.53	87.8948
753.65	88.2146
753.77	88.2420
753.88	88.1249
754.00	87.9428
754.12	88.2179
754.24	88.5267
754.35	88.3050
754.47	88.3333
754.59	88.7389
754.71	88.7277
754.82	88.0414
754.94	88.2699
755.06	88.3122
755.18	88.2728
755.29	87.9692
755.41	88.1934
755.53	88.1789
755.65	88.1816
755.76	87.6510
755.88	87.6811
756.00	87.9417
756.12	87.9094
756.23	87.4960
756.35	87.9575
756.47	88.3798
756.59	88.1090
756.70	88.2975
756.82	88.6194
756.94	88.5264
757.06	88.3018
757.17	88.5220
757.29	88.1420
757.41	88.2599
757.53	88.2609
757.64	88.0300
757.76	87.7282
757.88	87.9161
758.00	88.1720
758.11	88.0951
758.23	88.2764
758.35	88.2347
758.47	88.3372
758.58	88.1691
758.70	88.5447
758.82	88.3847
758.94	88.7260
759.05	88.7342
759.17	88.3187
759.29	88.1115
759.40	88.3790
759.52	88.0591
759.64	87.8225
759.76	88.2168
759.87	88.2990
759.99	88.4784
760.11	88.6628
760.23	88.8009
760.34	88.8713
760.46	88.8475
760.58	88.4001
760.70	88.2799
760.81	88.2574
760.93	88.2237
761.05	88.4539
761.16	88.7299
761.28	89.0390
761.40	88.7425
761.52	88.6084
761.63	88.4374
761.75	88.5636
761.87	88.4010
761.98	88.8748
762.10	88.9019
762.22	89.2239
762.34	88.9508
762.45	88.3473
762.57	88.4934
762.69	88.5095
762.81	88.4927
762.92	88.4877
763.04	88.7125
763.16	88.5888
763.27	88.6153
763.39	88.1118
763.51	88.2467
763.63	88.8366
763.74	88.7354
763.86	88.8081
763.98	88.7249
764.09	88.8726
764.21	88.6937
764.33	88.7846
764.44	88.7680
764.56	89.0873
764.68	89.1938
764.80	88.6981
764.91	88.6902
765.03	88.7652
765.15	88.8910
765.26	88.3497
765.38	88.7378
765.50	88.5991
765.62	88.4111
765.73	88.3907
765.85	88.5060
765.97	88.6907
766.08	88.9245
766.20	89.0457
766.32	88.7435
766.43	88.9720
766.55	88.9484
766.67	88.9522
766.79	89.1287
766.90	89.4949
767.02	89.6995
767.14	88.8906
767.25	88.7064
767.37	88.6214
767.49	88.1215
767.60	87.6727
767.72	88.4670
767.84	88.7719
767.95	88.6153
768.07	88.8279
768.19	89.0824
768.31	89.1154
768.42	88.9154
768.54	88.7231
768.66	88.7686
768.77	88.9763
768.89	88.8787
769.01	88.6658
769.12	88.9570
769.24	89.0987
769.36	88.9837
769.47	88.7023
769.59	88.7849
769.71	88.7494
769.82	88.9383
769.94	88.6448
770.06	89.0784
770.17	89.1235
770.29	88.9389
770.41	88.9134
770.53	89.1555
770.64	88.9202
770.76	88.8783
770.88	89.5800
770.99	89.5012
771.11	89.6049
771.23	89.4801
771.34	89.4082
771.46	89.0305
771.58	88.9186
771.69	88.6731
771.81	89.2251
771.93	89.1090
772.04	89.1693
772.16	89.1150
772.28	89.3638
772.39	88.9164
772.51	89.4150
772.63	89.3880
772.74	88.7786
772.86	88.8652
772.98	89.0907
773.09	88.8249
773.21	88.6944
773.33	89.5338
773.44	89.1762
773.56	88.8719
773.68	89.2178
773.79	89.4163
773.91	89.4110
774.03	89.2599
774.14	89.6598
774.26	89.7902
774.38	89.5589
774.49	89.2596
774.61	89.6565
774.73	89.6087
774.84	89.2090
774.96	89.5108
775.08	89.6842
775.19	89.5726
775.31	89.6214
775.43	89.9335
775.54	89.3921
775.66	89.7020
775.77	89.5523
775.89	89.2751
776.01	89.0790
776.12	89.8560
776.24	89.7933
776.36	89.7180
776.47	89.6216
776.59	89.8190
776.71	89.6262
776.82	89.3952
776.94	89.3882
777.06	89.9076
777.17	90.0407
777.29	89.7752
777.41	89.8646
777.52	89.9128
777.64	90.1172
777.75	90.0092
777.87	89.8904
777.99	89.8388
778.10	90.2123
778.22	89.9961
778.34	89.7274
778.45	89.9720
778.57	90.0789
778.69	89.5196
778.80	89.4395
778.92	89.7137
779.04	89.6580
779.15	89.3551
779.27	89.4897
779.38	89.6050
779.50	89.4362
779.62	89.8943
779.73	89.5518
779.85	90.0403
779.97	90.2639
780.08	90.0938
780.20	89.6278
780.31	90.2934
780.43	90.3688
780.55	89.7604
780.66	89.3998
780.78	89.8308
780.90	90.0422
781.01	89.9664
781.13	89.7690
781.25	90.5380
781.36	90.3676
781.48	89.7019
781.59	89.4575
781.71	90.2764
781.83	90.5632
781.94	90.0651
782.06	90.5851
782.18	91.4022
782.29	90.8697
782.41	90.3341
782.52	90.8182
782.64	90.8910
782.76	90.8408
782.87	90.4817
782.99	89.8033
783.10	89.9981
783.22	89.8537
783.34	89.1336
783.45	89.7292
783.57	90.1678
783.69	89.4563
783.80	89.2932
783.92	89.5587
784.03	89.4210
784.15	89.7924
784.27	90.2259
784.38	90.2661
784.50	90.3349
784.61	90.5337
784.73	90.6888
784.85	90.3492
784.96	90.2930
785.08	90.1917
785.19	90.4610
785.31	90.4681
785.43	90.5026
785.54	90.6060
785.66	90.3423
785.77	90.4275
785.89	90.2119
786.01	90.4406
786.12	90.1176
786.24	90.2515
786.35	89.8662
786.47	90.1172
786.59	90.0693
786.70	90.5054
786.82	90.4510
786.93	90.3607
787.05	90.1770
787.17	90.4145
787.28	90.1272
787.40	90.0655
787.51	90.4039
787.63	90.0930
787.75	89.6776
787.86	90.0235
787.98	90.3011
788.09	89.8460
788.21	90.0700
788.33	90.8404
788.44	90.5472
788.56	90.7625
788.67	90.8652
788.79	91.1443
788.91	91.0944
789.02	90.8183
789.14	90.4117
789.25	90.7074
789.37	90.4502
789.48	90.3064
789.60	90.5040
789.72	90.2426
789.83	90.4368
789.95	90.8004
790.06	90.1633
790.18	90.1869
790.30	90.4016
790.41	90.0065
790.53	89.8012
790.64	90.1011
790.76	90.3605
790.87	90.4011
790.99	90.5083
791.11	90.5989
791.22	90.5195
791.34	90.4539
791.45	90.7043
791.57	90.8304
791.68	90.2048
791.80	90.2662
791.92	90.5299
792.03	90.5076
792.15	90.4060
792.26	90.6114
792.38	90.6723
792.49	90.7069
792.61	90.9673
792.73	91.6247
792.84	93.6692
792.96	88.9508
793.07	89.4352
793.19	90.2836
793.30	90.3842
793.42	89.2406
793.54	93.1194
793.65	92.7494
793.77	92.0549
793.88	91.1311
794.00	90.5690
794.11	91.1358
794.23	91.2174
794.34	91.3282
794.46	90.5636
794.58	90.0513
794.69	90.9961
794.81	91.0925
794.92	89.6033
795.04	90.0174
795.15	90.3106
795.27	90.0977
795.39	89.8808
795.50	91.0012
795.62	91.5754
795.73	91.6714
795.85	90.8576
795.96	90.9213
796.08	90.8131
796.19	90.8622
796.31	90.8971
796.42	91.0134
796.54	91.1034
796.66	91.5642
796.77	90.8069
796.89	91.3682
797.00	91.9325
797.12	91.3555
797.23	90.6864
797.35	91.0616
797.46	90.3743
797.58	90.3677
797.69	90.5871
797.81	90.9198
797.93	91.2782
798.04	91.1417
798.16	91.3225
798.27	91.5801
798.39	91.7239
798.50	91.8163
798.62	91.4453
798.73	91.2936
798.85	91.0796
798.96	90.4026
799.08	90.0948
799.19	90.8850
799.31	91.1944
799.43	91.1335
799.54	91.0043
799.66	91.2519
799.77	91.8236
799.89	91.4098
800.00	90.8905
800.12	90.8447
800.23	91.2056
800.35	90.9696
800.46	90.5694
800.58	91.0092
800.69	91.6482
800.81	90.7019
800.92	90.5651
801.04	91.2767
801.16	91.5676
801.27	91.5225
801.39	92.1161
801.50	91.5908
801.62	91.1037
801.73	91.5203
801.85	91.3491
801.96	90.8968
802.08	91.7937
802.19	92.1165
802.31	91.0070
802.42	90.9118
802.54	91.6406
802.65	90.7129
802.77	91.2463
802.88	91.1482
803.00	91.6685
803.11	91.5568
803.23	91.7940
803.34	91.4887
803.46	91.7871
803.57	91.9695
803.69	91.4149
803.80	91.7772
803.92	91.5654
804.03	91.6753
804.15	91.1150
804.26	91.8470
804.38	91.4576
804.50	91.0801
804.61	91.1496
804.73	91.8840
804.84	91.5006
804.96	91.7719
805.07	91.8918
805.19	91.7126
805.30	91.1820
805.42	91.0522
805.53	91.0962
805.65	91.4903
805.76	91.6554
805.88	91.4205
805.99	91.7446
806.11	91.5294
806.22	91.2692
806.34	91.4592
806.45	91.1861
806.57	91.2937
806.68	91.1135
806.80	90.8688
806.91	91.2229
807.03	91.8848
807.14	91.8058
807.26	91.7175
807.37	92.4796
807.49	91.8632
807.60	91.1577
807.72	91.2445
807.83	91.7854
807.95	91.2913
808.06	91.1823
808.17	91.9615
808.29	91.5658
808.40	91.0509
808.52	90.7039
808.63	91.2357
808.75	90.7631
808.86	90.9465
808.98	91.0803
809.09	91.6123
809.21	91.2723
809.32	92.1408
809.44	91.8515
809.55	92.3587
809.67	91.7533
809.78	91.2730
809.90	90.8803
810.01	90.3059
810.13	90.2719
810.24	90.9563
810.36	91.5689
810.47	90.8859
810.59	90.8940
810.70	90.9302
810.82	90.8934
810.93	91.0540
811.05	91.6557
811.16	92.0754
811.27	90.8238
811.39	91.0376
811.50	91.8244
811.62	91.2992
811.73	91.3026
811.85	91.9782
811.96	91.6267
812.08	90.9475
812.19	91.4494
812.31	92.2987
812.42	92.4459
812.54	91.9427
812.65	91.7039
812.77	91.4608
812.88	90.8531
813.00	91.5902
813.11	92.2158
813.22	92.6102
813.34	91.8789
813.45	91.1448
813.57	90.9679
813.68	91.6765
813.80	91.8622
813.91	91.4372
814.03	92.6407
814.14	92.0895
814.26	90.9734
814.37	90.8337
814.49	92.0529
814.60	91.1973
814.71	91.6404
814.83	91.7393
814.94	90.9514
815.06	91.4563
815.17	92.7179
815.29	90.9412
815.40	91.2942
815.52	92.3950
815.63	91.6414
815.75	91.8127
815.86	93.2689
815.97	92.5349
816.09	91.5685
816.20	93.2132
816.32	92.1727
816.43	92.5381
816.55	91.5533
816.66	92.2574
816.78	91.1263
816.89	91.8512
817.00	92.2411
817.12	92.8907
817.23	92.6507
817.35	93.6445
817.46	91.7016
817.58	91.4812
817.69	92.3622
817.81	92.0172
817.92	90.5566
818.03	92.5417
818.15	92.4663
818.26	92.1354
818.38	96.0693
818.49	101.8241
818.61	81.1528
818.72	82.0450
818.83	88.5380
818.95	86.0161
819.06	79.4840
819.18	101.5775
819.29	100.0794
819.41	93.3273
819.52	92.1155
819.64	94.1001
819.75	93.8341
819.86	92.3395
819.98	92.6975
820.09	93.7594
820.21	91.5467
820.32	89.5227
820.44	92.4925
820.55	92.2918
820.66	91.4408
820.78	91.9330
820.89	93.9113
821.01	91.8320
821.12	93.3183
821.23	90.5183
821.35	90.1490
821.46	91.7312
821.58	93.4532
821.69	90.4642
821.81	92.2579
821.92	91.5864
822.03	91.8767
822.15	91.6876
822.26	91.9103
822.38	92.2820
822.49	93.7398
822.61	91.0966
822.72	90.5237
822.83	93.8563
822.95	92.8680
823.06	90.6234
823.18	90.9092
823.29	92.0308
823.40	94.6131
823.52	90.9729
823.63	93.9121
823.75	99.1058
823.86	94.8709
823.97	93.2252
824.09	98.2832
824.20	99.3407
824.32	94.6351
824.43	93.0752
824.55	93.2122
824.66	95.0825
824.77	90.5929
824.89	91.8430
825.00	94.7420
825.12	93.9575
825.23	95.3022
825.34	94.0042
825.46	93.2881
825.57	99.8051
825.69	97.3688
825.80	97.1222
825.91	98.4969
826.03	101.4047
826.14	94.9239
826.26	94.6798
826.37	90.2641
826.48	98.2385
826.60	93.8793
826.71	94.6083
826.83	87.4605
826.94	85.5959
827.05	84.5870
827.17	87.4750
827.28	92.0697
827.39	98.0994
827.51	101.8698
827.62	99.8262
827.74	106.1705
827.85	103.9876
827.96	86.0142
828.08	97.1391
828.19	128.8936
828.31	109.9938
828.42	96.1584
828.53	113.0638
828.65	20.8344
828.76	0.0000
828.87	0.0000
828.99	0.0000
