Wavelength (nm)	Reflectance (%)
377.35	200.0000
377.48	200.0000
377.62	0.0000
377.75	0.0000
377.88	200.0000
378.02	200.0000
378.15	200.0000
378.28	200.0000
378.41	200.0000
378.55	200.0000
378.68	200.0000
378.81	200.0000
378.95	200.0000
379.08	200.0000
379.21	200.0000
379.35	200.0000
379.48	200.0000
379.61	200.0000
379.74	200.0000
379.88	200.0000
380.01	200.0000
380.14	200.0000
380.28	200.0000
380.41	200.0000
380.54	200.0000
380.68	200.0000
380.81	200.0000
380.94	200.0000
381.07	200.0000
381.21	200.0000
381.34	200.0000
381.47	197.2921
381.61	200.0000
381.74	200.0000
381.87	200.0000
382.00	200.0000
382.14	200.0000
382.27	200.0000
382.40	200.0000
382.54	200.0000
382.67	200.0000
382.80	200.0000
382.93	200.0000
383.07	200.0000
383.20	200.0000
383.33	200.0000
383.47	200.0000
383.60	200.0000
383.73	200.0000
383.86	200.0000
384.00	200.0000
384.13	200.0000
384.26	200.0000
384.40	200.0000
384.53	200.0000
384.66	200.0000
384.79	200.0000
384.93	200.0000
385.06	200.0000
385.19	200.0000
385.33	200.0000
385.46	200.0000
385.59	200.0000
385.72	200.0000
385.86	200.0000
385.99	200.0000
386.12	200.0000
386.25	200.0000
386.39	200.0000
386.52	200.0000
386.65	200.0000
386.79	200.0000
386.92	200.0000
387.05	200.0000
387.18	200.0000
387.32	200.0000
387.45	200.0000
387.58	200.0000
387.71	200.0000
387.85	200.0000
387.98	200.0000
388.11	200.0000
388.25	200.0000
388.38	200.0000
388.51	200.0000
388.64	200.0000
388.78	200.0000
388.91	200.0000
389.04	200.0000
389.17	200.0000
389.31	200.0000
389.44	200.0000
389.57	200.0000
389.70	200.0000
389.84	200.0000
389.97	200.0000
390.10	200.0000
390.24	200.0000
390.37	200.0000
390.50	200.0000
390.63	200.0000
390.77	200.0000
390.90	200.0000
391.03	200.0000
391.16	200.0000
391.30	200.0000
391.43	200.0000
391.56	200.0000
391.69	200.0000
391.83	200.0000
391.96	200.0000
392.09	200.0000
392.22	200.0000
392.36	200.0000
392.49	200.0000
392.62	200.0000
392.75	200.0000
392.89	200.0000
393.02	200.0000
393.15	200.0000
393.28	200.0000
393.42	200.0000
393.55	200.0000
393.68	200.0000
393.81	200.0000
393.95	200.0000
394.08	200.0000
394.21	200.0000
394.34	200.0000
394.48	200.0000
394.61	200.0000
394.74	200.0000
394.87	200.0000
395.01	200.0000
395.14	200.0000
395.27	200.0000
395.40	200.0000
395.54	200.0000
395.67	200.0000
395.80	200.0000
395.93	200.0000
396.07	200.0000
396.20	200.0000
396.33	200.0000
396.46	200.0000
396.59	200.0000
396.73	200.0000
396.86	200.0000
396.99	200.0000
397.12	200.0000
397.26	200.0000
397.39	200.0000
397.52	200.0000
397.65	200.0000
397.79	200.0000
397.92	200.0000
398.05	200.0000
398.18	200.0000
398.32	200.0000
398.45	200.0000
398.58	200.0000
398.71	200.0000
398.84	200.0000
398.98	200.0000
399.11	200.0000
399.24	200.0000
399.37	200.0000
399.51	200.0000
399.64	200.0000
399.77	200.0000
399.90	200.0000
400.03	200.0000
400.17	200.0000
400.30	200.0000
400.43	200.0000
400.56	200.0000
400.70	200.0000
400.83	200.0000
400.96	200.0000
401.09	200.0000
401.23	200.0000
401.36	200.0000
401.49	200.0000
401.62	200.0000
401.75	200.0000
401.89	200.0000
402.02	200.0000
402.15	200.0000
402.28	200.0000
402.41	200.0000
402.55	200.0000
402.68	200.0000
402.81	200.0000
402.94	200.0000
403.08	200.0000
403.21	200.0000
403.34	200.0000
403.47	200.0000
403.60	200.0000
403.74	200.0000
403.87	200.0000
404.00	200.0000
404.13	200.0000
404.26	200.0000
404.40	200.0000
404.53	200.0000
404.66	200.0000
404.79	200.0000
404.93	200.0000
405.06	200.0000
405.19	200.0000
405.32	200.0000
405.45	200.0000
405.59	200.0000
405.72	200.0000
405.85	200.0000
405.98	200.0000
406.11	200.0000
406.25	200.0000
406.38	200.0000
406.51	200.0000
406.64	200.0000
406.77	200.0000
406.91	200.0000
407.04	200.0000
407.17	200.0000
407.30	200.0000
407.43	200.0000
407.57	200.0000
407.70	200.0000
407.83	200.0000
407.96	200.0000
408.09	200.0000
408.23	200.0000
408.36	200.0000
408.49	200.0000
408.62	200.0000
408.75	200.0000
408.89	200.0000
409.02	200.0000
409.15	200.0000
409.28	200.0000
409.41	200.0000
409.55	200.0000
409.68	200.0000
409.81	200.0000
409.94	200.0000
410.07	200.0000
410.20	200.0000
410.34	200.0000
410.47	200.0000
410.60	200.0000
410.73	200.0000
410.86	200.0000
411.00	200.0000
411.13	200.0000
411.26	200.0000
411.39	200.0000
411.52	200.0000
411.66	200.0000
411.79	200.0000
411.92	200.0000
412.05	200.0000
412.18	200.0000
412.31	200.0000
412.45	200.0000
412.58	200.0000
412.71	200.0000
412.84	200.0000
412.97	200.0000
413.11	200.0000
413.24	200.0000
413.37	200.0000
413.50	200.0000
413.63	200.0000
413.76	200.0000
413.90	200.0000
414.03	200.0000
414.16	200.0000
414.29	200.0000
414.42	200.0000
414.56	200.0000
414.69	200.0000
414.82	200.0000
414.95	200.0000
415.08	200.0000
415.21	200.0000
415.35	200.0000
415.48	181.8319
415.61	200.0000
415.74	200.0000
415.87	179.7974
416.00	200.0000
416.14	200.0000
416.27	200.0000
416.40	187.1219
416.53	200.0000
416.66	200.0000
416.79	200.0000
416.93	194.0353
417.06	200.0000
417.19	200.0000
417.32	200.0000
417.45	191.5305
417.58	176.8103
417.72	200.0000
417.85	180.0439
417.98	191.6910
418.11	200.0000
418.24	192.6828
418.37	173.3053
418.51	175.8216
418.64	182.8975
418.77	200.0000
418.90	174.7281
419.03	137.9995
419.16	185.3672
419.29	200.0000
419.43	148.6098
419.56	133.7825
419.69	200.0000
419.82	194.8683
419.95	140.7258
420.08	165.3892
420.22	185.0679
420.35	200.0000
420.48	169.5614
420.61	142.8174
420.74	139.8806
420.87	199.9639
421.00	145.3133
421.14	144.4281
421.27	181.3363
421.40	194.1544
421.53	159.0555
421.66	146.0587
421.79	155.0033
421.93	165.5371
422.06	155.6227
422.19	142.3545
422.32	185.3349
422.45	178.6709
422.58	143.8663
422.71	135.7434
422.85	175.9321
422.98	186.0643
423.11	142.4710
423.24	137.1850
423.37	161.6995
423.50	157.3283
423.63	157.4873
423.77	135.4557
423.90	139.7636
424.03	172.1290
424.16	164.5473
424.29	150.8025
424.42	139.0715
424.55	148.2204
424.69	150.3401
424.82	152.4430
424.95	156.2700
425.08	133.5798
425.21	150.0307
425.34	131.9060
425.47	147.9287
425.60	160.2240
425.74	122.9296
425.87	138.6348
426.00	152.1845
426.13	160.0955
426.26	137.4452
426.39	128.3767
426.52	140.9568
426.66	177.6897
426.79	139.9008
426.92	117.8118
427.05	177.8825
427.18	168.4319
427.31	130.6710
427.44	139.4143
427.57	139.6113
427.71	151.9418
427.84	127.3988
427.97	138.1798
428.10	171.1874
428.23	151.4221
428.36	128.4205
428.49	102.5494
428.62	180.9722
428.76	169.7514
428.89	128.2872
429.02	116.2881
429.15	133.7039
429.28	177.3776
429.41	125.2305
429.54	124.0944
429.67	136.1012
429.81	154.1447
429.94	130.5480
430.07	121.2596
430.20	157.1029
430.33	166.5283
430.46	127.3979
430.59	126.7031
430.72	145.9417
430.85	126.4144
430.99	135.4094
431.12	118.8556
431.25	152.4533
431.38	161.3147
431.51	125.2063
431.64	118.8455
431.77	157.6605
431.90	153.3762
432.03	120.8507
432.17	112.8839
432.30	131.3940
432.43	139.9018
432.56	122.0629
432.69	128.9107
432.82	134.9930
432.95	146.0466
433.08	128.9369
433.21	129.1983
433.35	131.3378
433.48	134.5792
433.61	122.6817
433.74	131.0605
433.87	128.5982
434.00	144.6622
434.13	122.3931
434.26	123.6107
434.39	139.0613
434.53	137.2369
434.66	123.1458
434.79	121.3126
434.92	125.8598
435.05	152.7484
435.18	116.1983
435.31	122.9579
435.44	144.5040
435.57	128.8213
435.70	117.2486
435.84	104.1867
435.97	141.9798
436.10	159.5767
436.23	112.6450
436.36	110.9928
436.49	126.9603
436.62	133.7446
436.75	121.0002
436.88	132.2017
437.01	124.2133
437.14	125.5829
437.28	114.1379
437.41	118.7992
437.54	147.9858
437.67	135.4443
437.80	109.5170
437.93	101.0429
438.06	158.4872
438.19	137.1305
438.32	102.8385
438.45	113.8726
438.58	128.8473
438.72	143.8683
438.85	125.4617
438.98	105.5601
439.11	117.8365
439.24	134.5858
439.37	124.9855
439.50	116.2268
439.63	136.5862
439.76	116.5787
439.89	110.5379
440.02	113.2194
440.15	126.9946
440.29	137.9098
440.42	111.8012
440.55	109.2429
440.68	139.1152
440.81	149.7012
440.94	112.8441
441.07	108.7418
441.20	145.5323
441.33	128.8355
441.46	112.8733
441.59	116.2291
441.72	119.8487
441.85	122.0201
441.99	120.9426
442.12	118.7857
442.25	136.2691
442.38	124.9294
442.51	125.0959
442.64	108.9156
442.77	128.5297
442.90	125.8862
443.03	113.8731
443.16	111.5513
443.29	122.4530
443.42	135.7363
443.55	110.6257
443.68	115.3910
443.82	110.7580
443.95	116.7357
444.08	118.7757
444.21	118.0608
444.34	118.2088
444.47	121.7993
444.60	118.3687
444.73	118.7303
444.86	119.2205
444.99	132.0004
445.12	118.8463
445.25	111.8779
445.38	120.1737
445.51	130.2893
445.64	120.8227
445.78	112.2898
445.91	103.4166
446.04	147.7954
446.17	123.1171
446.30	101.9481
446.43	126.6288
446.56	127.6735
446.69	110.4961
446.82	111.3250
446.95	125.2308
447.08	127.1898
447.21	111.7774
447.34	108.4485
447.47	128.5340
447.60	123.0050
447.73	115.3074
447.86	120.7564
447.99	117.3884
448.13	120.9352
448.26	125.8809
448.39	110.4804
448.52	127.5464
448.65	128.6423
448.78	113.2624
448.91	114.8958
449.04	124.8177
449.17	114.9988
449.30	122.5376
449.43	115.7811
449.56	120.9689
449.69	137.4815
449.82	117.1942
449.95	110.6203
450.08	135.6739
450.21	131.5844
450.34	117.4482
450.47	119.1217
450.60	130.5589
450.73	120.5665
450.87	113.2131
451.00	114.0625
451.13	124.6923
451.26	147.4901
451.39	112.4058
451.52	120.6515
451.65	124.2949
451.78	119.9225
451.91	116.6128
452.04	112.1104
452.17	138.8797
452.30	139.3622
452.43	112.7007
452.56	117.4438
452.69	137.1389
452.82	118.6237
452.95	131.6606
453.08	118.0615
453.21	110.2598
453.34	132.4712
453.47	116.0507
453.60	122.2652
453.73	138.0926
453.86	126.0811
453.99	122.4992
454.12	123.4808
454.25	124.0971
454.38	130.7866
454.52	119.8742
454.65	122.0005
454.78	124.2966
454.91	116.9033
455.04	124.0309
455.17	116.8560
455.30	121.0119
455.43	140.2045
455.56	120.2497
455.69	115.3123
455.82	130.8861
455.95	129.8995
456.08	117.9934
456.21	116.9563
456.34	119.5085
456.47	118.9792
456.60	124.3697
456.73	119.5199
456.86	123.9211
456.99	131.4074
457.12	118.7006
457.25	116.8127
457.38	131.4851
457.51	130.8993
457.64	124.4318
457.77	117.0575
457.90	120.9271
458.03	123.0416
458.16	122.8413
458.29	122.8868
458.42	125.0548
458.55	117.2926
458.68	117.2163
458.81	116.9012
458.94	131.0514
459.07	136.9128
459.20	110.0671
459.33	109.5913
459.46	128.1561
459.59	138.8126
459.72	125.7833
459.85	112.8167
459.98	132.9101
460.11	128.1878
460.24	117.3739
460.37	112.5903
460.50	129.1346
460.63	123.3030
460.76	116.9906
460.89	119.3542
461.02	124.8059
461.15	124.4163
461.28	117.0076
461.41	116.8972
461.54	131.6512
461.67	115.5123
461.80	122.4503
461.93	124.8316
462.06	125.7070
462.19	131.3076
462.32	117.7967
462.45	115.5985
462.58	128.1224
462.71	120.8117
462.84	118.4619
462.97	111.8936
463.10	122.9029
463.23	127.5792
463.36	125.6961
463.49	121.7407
463.62	115.8426
463.75	127.8570
463.88	119.7585
464.01	116.4689
464.14	113.2423
464.27	130.9418
464.40	114.9096
464.53	113.7431
464.66	124.4919
464.79	122.8172
464.92	117.9035
465.05	114.5206
465.18	119.4800
465.31	120.3465
465.44	116.1590
465.57	113.6218
465.70	117.4749
465.83	134.7151
465.96	117.6151
466.09	111.1316
466.22	125.0308
466.35	121.3874
466.48	113.9734
466.61	114.6154
466.74	120.6111
466.87	126.4985
467.00	118.6559
467.13	119.4240
467.26	126.2584
467.39	116.5256
467.52	114.4290
467.65	119.2176
467.78	130.5508
467.91	121.2681
468.04	120.7051
468.17	116.6915
468.30	119.7922
468.43	115.5053
468.56	115.7334
468.69	118.4060
468.82	120.8108
468.95	112.8587
469.08	113.8410
469.21	115.7134
469.34	117.1504
469.47	128.5978
469.60	122.3373
469.73	112.1738
469.86	119.7150
469.99	123.2437
470.11	112.1803
470.24	116.0738
470.37	122.5994
470.50	119.1446
470.63	113.7837
470.76	115.1477
470.89	121.4813
471.02	126.4434
471.15	109.4799
471.28	108.3730
471.41	125.4189
471.54	118.9457
471.67	112.3786
471.80	109.6505
471.93	123.9525
472.06	118.6186
472.19	110.6413
472.32	108.3963
472.45	125.4370
472.58	120.1957
472.71	114.0162
472.84	114.1565
472.97	113.9956
473.10	114.4737
473.23	120.6755
473.36	110.5625
473.49	121.1871
473.62	120.8065
473.74	116.8071
473.87	119.5569
474.00	113.9922
474.13	114.4862
474.26	116.4436
474.39	118.2950
474.52	114.8393
474.65	115.6569
474.78	117.6384
474.91	109.3858
475.04	115.3301
475.17	125.5107
475.30	113.8034
475.43	114.8630
475.56	120.3805
475.69	115.2093
475.82	117.1756
475.95	111.9475
476.08	122.3537
476.21	115.2520
476.34	115.2432
476.46	116.4939
476.59	119.8882
476.72	114.7121
476.85	112.3763
476.98	112.8831
477.11	121.4207
477.24	115.7696
477.37	110.2620
477.50	115.0473
477.63	119.4255
477.76	115.9777
477.89	111.4378
478.02	113.5247
478.15	118.4558
478.28	115.5369
478.41	117.8264
478.54	114.0919
478.66	121.3737
478.79	114.6717
478.92	114.4589
479.05	115.2843
479.18	116.1859
479.31	113.0810
479.44	113.3355
479.57	113.6808
479.70	114.5583
479.83	116.2269
479.96	112.0361
480.09	112.7482
480.22	121.2612
480.35	120.2399
480.48	114.5838
480.60	113.5899
480.73	113.4085
480.86	118.3190
480.99	114.7055
481.12	113.1479
481.25	115.6808
481.38	120.9376
481.51	114.1306
481.64	115.3812
481.77	119.2865
481.90	115.1599
482.03	113.1917
482.16	114.4318
482.29	118.9212
482.41	114.2756
482.54	113.5377
482.67	110.5816
482.80	114.2013
482.93	118.5356
483.06	112.4608
483.19	116.9869
483.32	117.3201
483.45	114.7293
483.58	114.0263
483.71	113.0387
483.84	117.1930
483.97	115.4918
484.09	112.3189
484.22	114.5998
484.35	114.6395
484.48	112.8682
484.61	113.6930
484.74	115.5415
484.87	118.3528
485.00	115.1036
485.13	115.4098
485.26	114.1417
485.39	117.6041
485.52	114.3122
485.64	117.3002
485.77	116.1137
485.90	117.9113
486.03	113.1883
486.16	116.5444
486.29	115.1696
486.42	117.1927
486.55	117.6455
486.68	113.6752
486.81	116.7703
486.94	115.7510
487.06	113.5087
487.19	115.4828
487.32	115.8472
487.45	116.0705
487.58	115.1623
487.71	116.9687
487.84	112.0517
487.97	117.5161
488.10	120.0731
488.23	115.3554
488.35	113.6876
488.48	116.5985
488.61	115.2515
488.74	113.9003
488.87	112.6423
489.00	114.1830
489.13	118.2601
489.26	115.0496
489.39	114.7332
489.52	116.5268
489.64	116.5537
489.77	116.3314
489.90	115.5015
490.03	116.1856
490.16	115.5425
490.29	115.3338
490.42	115.4367
490.55	118.1067
490.68	116.0689
490.81	114.3222
490.93	112.9509
491.06	118.5099
491.19	115.6341
491.32	114.4711
491.45	116.0213
491.58	113.6240
491.71	117.5379
491.84	115.5081
491.97	114.0318
492.09	119.1760
492.22	116.6192
492.35	115.0158
492.48	116.1605
492.61	116.3629
492.74	116.1203
492.87	117.4068
493.00	115.7904
493.12	115.0898
493.25	118.9454
493.38	116.3588
493.51	115.2319
493.64	115.3201
493.77	115.5245
493.90	115.3652
494.03	114.8585
494.16	117.9193
494.28	118.1993
494.41	113.7896
494.54	114.3532
494.67	119.1427
494.80	116.6183
494.93	114.0948
495.06	115.1203
495.19	116.4443
495.31	116.1060
495.44	115.0795
495.57	113.7567
495.70	117.3331
495.83	116.9160
495.96	113.6807
496.09	116.1852
496.22	119.1954
496.34	120.1339
496.47	113.4296
496.60	115.3182
496.73	118.2745
496.86	116.8094
496.99	112.8015
497.12	114.7506
497.24	114.4050
497.37	116.3005
497.50	115.1816
497.63	114.8328
497.76	116.2554
497.89	119.1186
498.02	116.0751
498.15	111.5350
498.27	115.1089
498.40	117.0034
498.53	116.1016
498.66	114.7697
498.79	116.4687
498.92	114.5242
499.05	115.5127
499.17	115.5749
499.30	116.2760
499.43	118.7077
499.56	115.2680
499.69	112.9213
499.82	116.1233
499.95	116.0244
500.07	114.0819
500.20	114.4204
500.33	115.9119
500.46	120.4367
500.59	114.0641
500.72	113.9962
500.85	116.6275
500.97	117.6568
501.10	116.0227
501.23	113.2352
501.36	114.9106
501.49	118.5425
501.62	115.8803
501.75	114.0484
501.87	116.9522
502.00	113.6053
502.13	115.8161
502.26	115.4961
502.39	112.9848
502.52	114.7643
502.64	113.5451
502.77	114.5368
502.90	117.6568
503.03	116.6613
503.16	114.2117
503.29	113.2314
503.42	118.6815
503.54	115.6199
503.67	114.1621
503.80	115.5271
503.93	117.9671
504.06	113.6826
504.19	114.7501
504.31	117.0008
504.44	115.2262
504.57	116.3391
504.70	114.0448
504.83	113.0446
504.96	116.1415
505.08	114.6681
505.21	114.3919
505.34	117.7487
505.47	116.2148
505.60	114.8650
505.73	114.9000
505.85	114.6774
505.98	119.7697
506.11	115.3592
506.24	114.0358
506.37	115.5908
506.50	116.3086
506.62	117.1041
506.75	114.1652
506.88	114.2209
507.01	116.2451
507.14	114.9688
507.27	115.7724
507.39	115.9852
507.52	116.8421
507.65	115.5476
507.78	115.7299
507.91	113.7604
508.04	116.6214
508.16	115.7732
508.29	114.6097
508.42	113.9411
508.55	113.0383
508.68	112.5368
508.81	115.0158
508.93	112.8028
509.06	113.8888
509.19	114.8080
509.32	113.6894
509.45	113.0083
509.57	113.8222
509.70	113.6579
509.83	113.5054
509.96	113.4452
510.09	115.5189
510.22	115.4165
510.34	114.8927
510.47	113.3721
510.60	118.0898
510.73	115.1812
510.86	115.2713
510.98	114.4900
511.11	114.7313
511.24	117.7936
511.37	114.6831
511.50	112.7584
511.63	114.5085
511.75	114.5659
511.88	113.7857
512.01	115.1930
512.14	114.6058
512.27	115.0424
512.39	114.0015
512.52	113.0874
512.65	115.1208
512.78	113.7860
512.91	114.6251
513.03	114.2618
513.16	116.4931
513.29	116.5366
513.42	115.2507
513.55	113.8982
513.67	116.5783
513.80	114.6211
513.93	114.1052
514.06	114.1670
514.19	114.5539
514.31	115.3483
514.44	115.2364
514.57	113.3669
514.70	115.0472
514.83	116.3786
514.95	113.0615
515.08	113.9098
515.21	115.3921
515.34	115.1945
515.47	114.2654
515.59	112.6639
515.72	113.7030
515.85	113.4285
515.98	114.5345
516.11	111.8862
516.23	114.2463
516.36	115.4149
516.49	113.6512
516.62	113.1828
516.75	115.9076
516.87	116.9266
517.00	112.0134
517.13	114.0104
517.26	117.5967
517.39	115.1502
517.51	112.0716
517.64	115.3655
517.77	116.3991
517.90	113.3898
518.02	114.6567
518.15	113.7086
518.28	112.5996
518.41	114.6908
518.54	114.6488
518.66	114.5920
518.79	112.9507
518.92	114.3455
519.05	114.6043
519.18	113.8542
519.30	116.3724
519.43	113.1567
519.56	113.0090
519.69	114.4568
519.81	116.0292
519.94	114.3945
520.07	112.8782
520.20	114.5159
520.33	115.5087
520.45	115.5035
520.58	114.0300
520.71	114.6905
520.84	115.5876
520.96	115.4960
521.09	114.8281
521.22	112.8298
521.35	115.2651
521.48	115.8801
521.60	113.0733
521.73	113.3063
521.86	115.1006
521.99	117.3256
522.11	113.3409
522.24	113.7101
522.37	114.7143
522.50	114.2500
522.62	115.8359
522.75	111.8203
522.88	114.7520
523.01	114.6850
523.14	113.7481
523.26	114.1875
523.39	116.0487
523.52	113.0842
523.65	117.1945
523.77	114.8097
523.90	115.2673
524.03	114.7535
524.16	113.6064
524.28	113.9078
524.41	114.7882
524.54	114.8698
524.67	112.3961
524.79	113.0889
524.92	114.9907
525.05	116.4282
525.18	113.3650
525.31	114.1486
525.43	112.8382
525.56	117.5025
525.69	113.4891
525.82	111.5505
525.94	115.0869
526.07	115.5369
526.20	114.5608
526.33	114.0923
526.45	116.6999
526.58	116.4494
526.71	114.0692
526.84	113.4304
526.96	115.4112
527.09	114.7321
527.22	113.9233
527.35	113.7313
527.47	113.3041
527.60	116.2800
527.73	112.7492
527.86	113.4468
527.98	114.6944
528.11	114.8721
528.24	114.2427
528.37	114.3530
528.49	112.7715
528.62	114.8248
528.75	114.5601
528.88	112.2075
529.00	113.7320
529.13	114.7734
529.26	112.2560
529.39	112.6998
529.51	116.8237
529.64	115.2145
529.77	112.2316
529.90	112.6368
530.02	114.1930
530.15	113.7289
530.28	112.8897
530.40	114.0191
530.53	114.6641
530.66	114.6490
530.79	113.6215
530.91	113.1104
531.04	113.3370
531.17	113.8473
531.30	113.2243
531.42	114.0993
531.55	114.1489
531.68	116.3649
531.81	113.2695
531.93	113.8064
532.06	115.5290
532.19	113.7189
532.31	113.3007
532.44	113.9639
532.57	114.2679
532.70	111.8712
532.82	112.8405
532.95	113.5911
533.08	115.3548
533.21	115.6885
533.33	112.7685
533.46	112.7420
533.59	114.4284
533.71	117.2410
533.84	113.8456
533.97	113.0425
534.10	113.3278
534.22	113.8202
534.35	113.7963
534.48	114.1814
534.61	116.2527
534.73	113.1095
534.86	113.4437
534.99	114.6232
535.11	115.9563
535.24	114.7921
535.37	114.1736
535.50	113.0628
535.62	113.3574
535.75	115.7125
535.88	113.6739
536.00	113.5083
536.13	113.9048
536.26	114.1715
536.39	113.5472
536.51	112.8481
536.64	115.7892
536.77	114.0071
536.89	113.7683
537.02	114.3112
537.15	114.7019
537.28	114.2645
537.40	114.0632
537.53	113.5152
537.66	115.9288
537.78	115.2047
537.91	113.3454
538.04	113.4764
538.17	115.1752
538.29	113.9001
538.42	114.7952
538.55	114.7306
538.67	114.3665
538.80	113.8374
538.93	113.6714
539.05	113.5271
539.18	115.4694
539.31	114.0731
539.44	113.8168
539.56	112.9814
539.69	114.8483
539.82	113.6753
539.94	113.4508
540.07	113.6579
540.20	116.3745
540.32	113.2496
540.45	114.1742
540.58	114.4719
540.71	115.8826
540.83	113.0381
540.96	114.3004
541.09	113.6719
541.21	115.7818
541.34	115.3731
541.47	111.6850
541.59	112.1969
541.72	114.8182
541.85	115.9438
541.98	112.9934
542.10	111.0051
542.23	111.7788
542.36	115.7236
542.48	113.2441
542.61	113.5534
542.74	112.6414
542.86	113.5496
542.99	112.5118
543.12	112.5644
543.24	113.3739
543.37	112.3529
543.50	113.0614
543.62	113.5298
543.75	113.4214
543.88	113.1832
544.01	112.5022
544.13	113.2834
544.26	114.1538
544.39	111.8943
544.51	112.7555
544.64	112.9246
544.77	112.9031
544.89	112.6702
545.02	112.6569
545.15	111.7177
545.27	114.3434
545.40	114.5181
545.53	112.8221
545.65	112.7170
545.78	111.6446
545.91	112.1303
546.03	113.0978
546.16	113.6150
546.29	113.2885
546.41	113.4923
546.54	113.4619
546.67	112.7590
546.79	114.1356
546.92	115.5615
547.05	112.1988
547.17	113.1244
547.30	112.9630
547.43	114.2927
547.56	113.4286
547.68	113.2013
547.81	113.0833
547.94	113.9728
548.06	113.2234
548.19	112.3017
548.32	114.8024
548.44	113.1953
548.57	112.6484
548.70	113.5382
548.82	113.7690
548.95	113.0797
549.08	112.2685
549.20	111.8327
549.33	114.4004
549.45	113.0551
549.58	111.5486
549.71	111.1234
549.83	114.3050
549.96	112.2895
550.09	113.8107
550.21	113.4585
550.34	114.4817
550.47	113.5858
550.59	113.1394
550.72	111.1155
550.85	113.0594
550.97	114.6585
551.10	111.2390
551.23	110.5699
551.35	114.2990
551.48	113.4325
551.61	111.8418
551.73	112.2003
551.86	114.7706
551.99	113.6771
552.11	112.6208
552.24	112.9656
552.37	114.5466
552.49	113.2908
552.62	112.9338
552.75	114.0471
552.87	112.4388
553.00	113.0479
553.12	113.2223
553.25	112.3844
553.38	113.4110
553.50	114.2124
553.63	112.1568
553.76	110.7068
553.88	112.4676
554.01	112.4391
554.14	111.3543
554.26	111.5359
554.39	113.7508
554.52	111.4128
554.64	111.2192
554.77	111.6221
554.89	113.3808
555.02	113.3338
555.15	112.1358
555.27	111.5586
555.40	112.5117
555.53	114.2815
555.65	112.4388
555.78	111.5226
555.91	113.0223
556.03	113.6232
556.16	111.3055
556.29	111.2904
556.41	113.6303
556.54	114.3893
556.66	111.5031
556.79	111.0626
556.92	114.5117
557.04	113.2609
557.17	112.1606
557.30	111.6958
557.42	112.5617
557.55	112.5919
557.67	112.6310
557.80	112.1492
557.93	112.6387
558.05	113.2736
558.18	111.7789
558.31	111.5159
558.43	113.4337
558.56	113.2724
558.68	111.8098
558.81	111.2543
558.94	112.0930
559.06	115.2023
559.19	112.4806
559.32	112.6988
559.44	112.3423
559.57	113.0790
559.69	112.4620
559.82	112.0273
559.95	112.6768
560.07	112.3263
560.20	111.5064
560.33	112.7710
560.45	113.9542
560.58	112.1737
560.70	112.7949
560.83	112.4111
560.96	112.9054
561.08	112.8219
561.21	113.5906
561.33	112.2738
561.46	110.9458
561.59	113.9691
561.71	111.5467
561.84	111.5108
561.97	111.7590
562.09	112.9268
562.22	111.8306
562.34	111.2318
562.47	113.1595
562.60	112.7864
562.72	111.7745
562.85	111.8547
562.97	113.0578
563.10	112.7010
563.23	111.8169
563.35	112.0559
563.48	112.9858
563.60	112.7517
563.73	112.6512
563.86	111.8377
563.98	111.9651
564.11	111.7230
564.23	111.0625
564.36	112.8526
564.49	111.2157
564.61	112.8964
564.74	111.8077
564.86	111.2992
564.99	113.2046
565.12	113.3603
565.24	112.8676
565.37	112.3128
565.49	113.1171
565.62	114.3689
565.75	112.4036
565.87	110.7544
566.00	115.6283
566.12	113.7162
566.25	111.0051
566.38	112.5260
566.50	111.7310
566.63	112.8757
566.75	112.1667
566.88	112.0920
567.01	111.2308
567.13	111.9562
567.26	111.2831
567.38	110.9987
567.51	112.0800
567.64	110.8872
567.76	111.9287
567.89	111.6000
568.01	111.6668
568.14	111.5906
568.26	111.6732
568.39	111.6010
568.52	111.7173
568.64	112.7611
568.77	111.5442
568.89	111.6663
569.02	112.2156
569.15	112.0807
569.27	111.5738
569.40	112.1446
569.52	112.2248
569.65	112.1364
569.77	111.5101
569.90	112.2818
570.03	111.7389
570.15	114.3206
570.28	112.0916
570.40	112.7427
570.53	111.9318
570.66	113.3265
570.78	112.7597
570.91	111.3457
571.03	110.9149
571.16	112.1803
571.28	110.8883
571.41	110.6644
571.54	111.0713
571.66	110.5534
571.79	111.9445
571.91	111.6867
572.04	111.1804
572.16	111.3018
572.29	111.7483
572.42	111.0051
572.54	111.6311
572.67	110.8806
572.79	112.1017
572.92	111.7756
573.04	112.1337
573.17	113.0982
573.29	111.4460
573.42	111.6820
573.55	113.0206
573.67	112.3034
573.80	112.1897
573.92	111.9529
574.05	111.9222
574.17	113.1351
574.30	112.0335
574.43	111.2582
574.55	110.8504
574.68	112.1387
574.80	111.6787
574.93	110.6780
575.05	110.2743
575.18	110.5537
575.30	111.7179
575.43	112.0677
575.56	113.0258
575.68	111.4662
575.81	111.4255
575.93	110.6784
576.06	112.2076
576.18	113.0409
576.31	111.2298
576.43	110.0865
576.56	113.1971
576.69	112.3368
576.81	111.2343
576.94	111.0035
577.06	111.5989
577.19	112.6709
577.31	112.1192
577.44	112.2184
577.56	112.8815
577.69	111.6875
577.82	112.5676
577.94	111.0402
578.07	110.3621
578.19	112.2322
578.32	112.5715
578.44	111.0395
578.57	111.2084
578.69	112.0764
578.82	111.0640
578.94	111.5793
579.07	111.6937
579.19	112.1388
579.32	110.8169
579.45	110.7531
579.57	110.8358
579.70	110.9240
579.82	110.6879
579.95	110.2565
580.07	111.8572
580.20	110.4384
580.32	110.7235
580.45	111.4606
580.57	111.6902
580.70	111.7796
580.82	111.4748
580.95	111.1726
581.08	109.6556
581.20	113.1892
581.33	111.2287
581.45	110.4906
581.58	111.0934
581.70	111.1356
581.83	108.7762
581.95	110.1968
582.08	111.3990
582.20	110.3177
582.33	110.4928
582.45	110.4623
582.58	111.1766
582.70	111.0044
582.83	110.7140
582.95	110.0858
583.08	111.4536
583.21	111.7954
583.33	112.4020
583.46	111.7549
583.58	110.8076
583.71	112.0919
583.83	110.9223
583.96	110.9118
584.08	112.2560
584.21	112.3477
584.33	112.3159
584.46	110.9693
584.58	111.0534
584.71	112.8426
584.83	111.9556
584.96	110.7036
585.08	110.5698
585.21	112.1371
585.33	111.6542
585.46	110.2247
585.58	110.9004
585.71	110.2901
585.83	110.1863
585.96	111.6541
586.08	111.7508
586.21	112.2306
586.33	112.0375
586.46	109.8959
586.59	111.7490
586.71	110.1322
586.84	110.9893
586.96	110.5147
587.09	109.2611
587.21	111.0271
587.34	112.0078
587.46	111.0621
587.59	110.5806
587.71	111.0345
587.84	110.8831
587.96	111.0963
588.09	110.2625
588.21	111.9331
588.34	110.9541
588.46	110.6260
588.59	111.1008
588.71	111.3905
588.84	110.6791
588.96	110.0679
589.09	112.6834
589.21	110.7417
589.34	109.6891
589.46	111.1268
589.59	111.3779
589.71	112.0296
589.84	110.7784
589.96	110.1052
590.09	111.2200
590.21	111.8617
590.34	110.9912
590.46	110.8572
590.59	110.6193
590.71	110.8530
590.84	111.1316
590.96	109.6026
591.09	110.9240
591.21	110.9034
591.34	110.7875
591.46	110.0235
591.59	112.0298
591.71	111.9717
591.83	110.8620
591.96	109.8495
592.08	111.1431
592.21	111.9023
592.33	110.7948
592.46	109.9292
592.58	110.3054
592.71	112.5339
592.83	111.8653
592.96	110.5483
593.08	111.7076
593.21	109.7274
593.33	110.4884
593.46	110.9150
593.58	110.7624
593.71	112.3049
593.83	111.9249
593.96	110.3237
594.08	113.9539
594.21	112.3376
594.33	110.5486
594.46	111.3593
594.58	110.6759
594.71	109.9421
594.83	110.5748
594.96	110.1902
595.08	113.3833
595.20	111.1196
595.33	109.8221
595.45	109.0769
595.58	112.4812
595.70	110.6710
595.83	109.1946
595.95	110.5343
596.08	110.9657
596.20	110.0345
596.33	110.4040
596.45	110.3367
596.58	111.0340
596.70	110.4419
596.83	110.7541
596.95	109.7740
597.08	111.3907
597.20	110.6052
597.32	110.9924
597.45	111.1876
597.57	111.3165
597.70	111.0152
597.82	110.1963
597.95	110.4405
598.07	110.3468
598.20	110.8970
598.32	110.2868
598.45	109.9370
598.57	111.4001
598.70	111.9988
598.82	110.9814
598.94	110.2414
599.07	111.8372
599.19	111.4383
599.32	109.8123
599.44	108.3051
599.57	111.9330
599.69	111.2683
599.82	110.1348
599.94	109.5571
600.07	111.6022
600.19	110.7387
600.31	108.8369
600.44	110.2644
600.56	111.8211
600.69	111.0765
600.81	110.2464
600.94	109.4430
601.06	110.4012
601.19	110.5858
601.31	110.5464
601.44	109.1189
601.56	111.3835
601.68	110.8539
601.81	110.8802
601.93	109.5263
602.06	110.7122
602.18	109.5120
602.31	109.2299
602.43	110.8914
602.56	110.9268
602.68	110.1573
602.80	110.1222
602.93	109.8975
603.05	108.7994
603.18	109.8574
603.30	109.1649
603.43	109.0219
603.55	109.8735
603.68	111.3903
603.80	110.3336
603.92	109.5960
604.05	110.2577
604.17	110.0085
604.30	109.1824
604.42	109.4667
604.55	110.6095
604.67	110.8584
604.79	109.4636
604.92	109.7715
605.04	110.2131
605.17	109.7396
605.29	109.4915
605.42	109.8142
605.54	111.4519
605.66	110.1549
605.79	109.7817
605.91	109.6947
606.04	109.9099
606.16	109.0038
606.29	110.0374
606.41	109.7737
606.53	110.2472
606.66	109.7741
606.78	109.6810
606.91	109.4884
607.03	109.8810
607.16	109.5902
607.28	109.3038
607.40	110.2421
607.53	110.9969
607.65	109.7422
607.78	109.3146
607.90	110.0036
608.03	111.2545
608.15	109.4593
608.27	109.0538
608.40	109.0814
608.52	110.0569
608.65	109.9096
608.77	109.6387
608.89	108.8799
609.02	111.1544
609.14	110.5807
609.27	109.0111
609.39	109.8117
609.52	108.9957
609.64	107.9320
609.76	109.1539
609.89	109.1054
610.01	110.2942
610.14	110.4088
610.26	109.3712
610.38	109.5031
610.51	110.9393
610.63	109.6396
610.76	108.9007
610.88	109.0325
611.01	109.4641
611.13	111.3882
611.25	110.3727
611.38	108.7582
611.50	110.1649
611.63	110.6207
611.75	109.8528
611.87	109.5800
612.00	108.8295
612.12	110.3331
612.25	108.7477
612.37	108.7801
612.49	110.0786
612.62	109.6711
612.74	109.4889
612.87	108.4498
612.99	108.8649
613.11	108.3437
613.24	109.3391
613.36	109.6855
613.49	108.9995
613.61	109.0226
613.73	108.8906
613.86	109.2078
613.98	107.9622
614.11	109.1888
614.23	109.5432
614.35	108.7457
614.48	109.4085
614.60	109.3892
614.72	108.0407
614.85	108.7096
614.97	109.2130
615.10	109.5848
615.22	108.8112
615.34	109.6261
615.47	110.0941
615.59	108.7595
615.72	109.3688
615.84	108.6325
615.96	108.4247
616.09	110.5833
616.21	108.8155
616.34	108.0634
616.46	108.7865
616.58	109.1005
616.71	109.4697
616.83	108.6708
616.95	108.6808
617.08	109.2759
617.20	108.1769
617.33	107.7130
617.45	108.0407
617.57	108.8205
617.70	108.7027
617.82	108.1139
617.95	108.7552
618.07	109.8116
618.19	108.5655
618.32	108.8535
618.44	108.8567
618.56	108.1991
618.69	107.7645
618.81	107.5863
618.94	109.4812
619.06	107.9521
619.18	107.9514
619.31	107.4962
619.43	107.4308
619.55	109.2978
619.68	108.6786
619.80	107.3512
619.92	108.3885
620.05	110.8290
620.17	109.1659
620.30	107.0787
620.42	108.0549
620.54	109.7767
620.67	107.4606
620.79	107.8373
620.91	108.2297
621.04	109.4293
621.16	107.9805
621.29	108.0678
621.41	107.2907
621.53	107.9956
621.66	108.0688
621.78	107.1000
621.90	109.0910
622.03	109.6836
622.15	107.5680
622.27	108.1233
622.40	109.7007
622.52	108.9283
622.64	108.6274
622.77	107.8237
622.89	108.9325
623.02	108.8988
623.14	107.7069
623.26	108.1551
623.39	108.8052
623.51	108.6991
623.63	107.0871
623.76	106.5529
623.88	109.5313
624.00	108.6387
624.13	107.0498
624.25	107.5018
624.37	107.3415
624.50	108.9819
624.62	108.9880
624.75	107.3166
624.87	107.0042
624.99	109.3913
625.12	107.7715
625.24	107.0101
625.36	110.0827
625.49	108.5912
625.61	107.9740
625.73	108.3997
625.86	109.4076
625.98	108.5292
626.10	108.1292
626.23	108.0533
626.35	109.8082
626.47	108.3069
626.60	107.4276
626.72	106.9658
626.84	107.9277
626.97	108.3889
627.09	107.3764
627.21	107.2830
627.34	109.1456
627.46	109.2599
627.58	106.6934
627.71	107.1788
627.83	108.5319
627.95	106.4996
628.08	107.9437
628.20	108.2238
628.32	107.3794
628.45	106.5649
628.57	106.2580
628.69	106.8349
628.82	107.5703
628.94	109.0098
629.06	107.9330
629.19	108.2248
629.31	109.2896
629.43	107.2076
629.56	108.4443
629.68	108.2050
629.80	109.1702
629.93	108.1073
630.05	107.9249
630.17	107.6079
630.30	108.0220
630.42	106.9090
630.54	107.4607
630.67	107.4639
630.79	106.5566
630.91	109.0469
631.04	106.9540
631.16	108.2920
631.28	107.6292
631.41	106.6846
631.53	106.5476
631.65	107.2387
631.78	107.2882
631.90	108.1728
632.02	107.9209
632.14	106.0710
632.27	109.3603
632.39	108.1077
632.51	106.6333
632.64	107.9695
632.76	107.3689
632.88	106.7406
633.01	107.2141
633.13	106.9186
633.25	108.2339
633.38	109.9611
633.50	106.9026
633.62	106.5170
633.75	106.9230
633.87	106.3880
633.99	107.8288
634.11	105.9948
634.24	106.7279
634.36	107.8365
634.48	106.8870
634.61	106.2912
634.73	108.2899
634.85	107.0320
634.98	106.8653
635.10	106.8339
635.22	106.4067
635.35	109.8913
635.47	106.8264
635.59	106.6734
635.71	107.0682
635.84	107.9005
635.96	106.7987
636.08	107.0942
636.21	106.0134
636.33	107.1815
636.45	107.1917
636.58	106.1024
636.70	106.5007
636.82	108.4334
636.94	106.3984
637.07	105.1496
637.19	107.3720
637.31	106.8762
637.44	106.7169
637.56	105.8050
637.68	107.1783
637.81	106.7532
637.93	106.9099
638.05	105.4120
638.17	107.6698
638.30	109.0958
638.42	106.0777
638.54	106.4614
638.67	106.8253
638.79	108.1997
638.91	106.9250
639.03	106.1008
639.16	106.3952
639.28	106.6781
639.40	106.4225
639.53	105.2013
639.65	107.0647
639.77	106.5356
639.89	106.7750
640.02	106.7864
640.14	107.2799
640.26	105.7226
640.39	106.6263
640.51	105.6971
640.63	106.3744
640.75	107.6596
640.88	106.6642
641.00	105.6074
641.12	106.1915
641.24	107.7227
641.37	105.8945
641.49	104.8754
641.61	108.5091
641.74	106.5047
641.86	106.6695
641.98	105.7002
642.10	107.3034
642.23	106.3601
642.35	105.4434
642.47	105.9055
642.60	106.1830
642.72	107.6606
642.84	105.6402
642.96	105.6999
643.09	106.6873
643.21	106.3861
643.33	105.4064
643.45	105.7360
643.58	107.0835
643.70	107.8821
643.82	106.0418
643.94	105.9257
644.07	106.7496
644.19	106.8066
644.31	106.8140
644.44	106.5960
644.56	106.1639
644.68	106.1158
644.80	106.5658
644.93	105.8013
645.05	106.5036
645.17	107.0927
645.29	107.4491
645.42	106.6535
645.54	106.0950
645.66	107.0491
645.78	106.0807
645.91	105.2092
646.03	106.0814
646.15	107.6817
646.27	104.7809
646.40	105.2625
646.52	106.7061
646.64	107.1495
646.76	105.9164
646.89	104.8564
647.01	106.5613
647.13	106.0950
647.25	106.2272
647.38	104.9908
647.50	104.9624
647.62	107.1501
647.74	104.8616
647.87	104.4295
647.99	107.1193
648.11	107.3805
648.23	105.6083
648.36	104.7932
648.48	106.6339
648.60	106.2673
648.72	105.1591
648.85	104.3804
648.97	106.7356
649.09	106.4865
649.21	105.0605
649.34	105.4338
649.46	106.8239
649.58	106.3528
649.70	105.4580
649.83	103.9325
649.95	105.8536
650.07	105.5208
650.19	105.3213
650.32	104.9608
650.44	106.3547
650.56	105.4510
650.68	104.5153
650.81	104.4096
650.93	104.7076
651.05	106.1140
651.17	103.7461
651.29	105.4604
651.42	104.9587
651.54	105.0646
651.66	104.2836
651.78	102.9119
651.91	104.4183
652.03	107.4456
652.15	104.5693
652.27	103.9265
652.40	105.2786
652.52	104.9461
652.64	104.0198
652.76	104.4669
652.88	106.6571
653.01	105.2483
653.13	104.3331
653.25	104.3889
653.37	105.9875
653.50	106.5119
653.62	105.6494
653.74	104.0023
653.86	106.7278
653.98	106.3885
654.11	105.1414
654.23	104.8120
654.35	105.3740
654.47	107.9085
654.60	105.6702
654.72	105.9546
654.84	104.8197
654.96	106.6639
655.08	104.6627
655.21	105.2399
655.33	105.1204
655.45	106.1655
655.57	104.6485
655.70	104.2060
655.82	105.4411
655.94	106.0371
656.06	104.6765
656.18	102.5235
656.31	105.4591
656.43	105.4678
656.55	104.4416
656.67	104.9907
656.79	105.0248
656.92	106.7088
657.04	105.4285
657.16	104.0594
657.28	106.9664
657.40	103.9029
657.53	104.8683
657.65	103.2505
657.77	105.0949
657.89	105.2980
658.01	103.5104
658.14	103.3819
658.26	105.2512
658.38	104.8652
658.50	103.9990
658.62	103.9854
658.75	106.8295
658.87	104.7185
658.99	104.7795
659.11	103.4321
659.23	104.8284
659.36	106.2175
659.48	104.5442
659.60	103.7008
659.72	104.6433
659.84	104.5818
659.97	104.8575
660.09	104.2431
660.21	106.8795
660.33	105.9053
660.45	103.5728
660.58	103.3007
660.70	104.6894
660.82	105.2536
660.94	102.7345
661.06	104.2960
661.19	105.3130
661.31	105.2627
661.43	103.5789
661.55	103.8272
661.67	105.0256
661.80	106.0106
661.92	103.6322
662.04	104.3673
662.16	104.4749
662.28	105.5555
662.40	104.3844
662.53	104.0854
662.65	105.0651
662.77	104.6272
662.89	104.6426
663.01	104.1528
663.14	104.3236
663.26	105.5103
663.38	104.6726
663.50	103.2096
663.62	104.0858
663.74	104.7641
663.87	103.7464
663.99	104.0980
664.11	105.0978
664.23	106.0873
664.35	102.5475
664.48	102.9952
664.60	104.2230
664.72	103.3314
664.84	102.8302
664.96	103.1213
665.08	106.1506
665.21	104.7186
665.33	103.9310
665.45	102.6043
665.57	104.0074
665.69	105.5955
665.81	103.7175
665.94	103.1394
666.06	104.1142
666.18	104.8853
666.30	103.8787
666.42	103.3014
666.54	104.9666
666.67	104.9350
666.79	104.1244
666.91	104.6797
667.03	104.2984
667.15	103.0069
667.27	103.7941
667.40	103.6583
667.52	104.0988
667.64	104.8100
667.76	103.7787
667.88	103.2633
668.00	104.8231
668.13	104.4584
668.25	103.0254
668.37	102.5238
668.49	103.5503
668.61	105.7188
668.73	103.7261
668.85	103.8234
668.98	104.7088
669.10	104.9837
669.22	103.5177
669.34	103.6087
669.46	105.4675
669.58	103.6269
669.71	103.8730
669.83	104.2489
669.95	103.8483
670.07	104.2594
670.19	103.3663
670.31	103.7629
670.43	102.9822
670.56	104.3094
670.68	104.2442
670.80	103.5330
670.92	103.0536
671.04	105.1651
671.16	103.3177
671.28	102.7076
671.41	103.2719
671.53	104.9316
671.65	103.2038
671.77	102.5419
671.89	106.0387
672.01	105.2455
672.13	103.7111
672.26	103.1562
672.38	105.2386
672.50	103.9312
672.62	103.9331
672.74	104.4382
672.86	104.0182
672.98	104.4311
673.11	102.4640
673.23	103.1045
673.35	104.9367
673.47	103.9763
673.59	103.3936
673.71	102.2412
673.83	104.3837
673.96	105.6889
674.08	102.9648
674.20	102.4340
674.32	103.7484
674.44	103.7339
674.56	103.0080
674.68	102.9048
674.80	104.4954
674.93	103.9483
675.05	103.0137
675.17	102.9421
675.29	103.1912
675.41	103.9258
675.53	103.1680
675.65	102.5279
675.77	103.1795
675.90	104.5334
676.02	102.6855
676.14	101.9640
676.26	104.0666
676.38	105.5335
676.50	102.7161
676.62	103.0343
676.74	102.3970
676.87	102.6331
676.99	103.7913
677.11	104.0991
677.23	103.4060
677.35	103.4640
677.47	102.7250
677.59	102.8445
677.71	103.6125
677.83	104.3615
677.96	102.8497
678.08	103.2034
678.20	102.9523
678.32	102.8916
678.44	103.3047
678.56	102.9689
678.68	105.4692
678.80	103.2818
678.93	101.8918
679.05	102.3129
679.17	102.5905
679.29	103.6353
679.41	102.9312
679.53	101.6178
679.65	103.3228
679.77	103.9480
679.89	102.8853
680.01	104.3158
680.14	104.8733
680.26	102.4186
680.38	102.4674
680.50	103.6891
680.62	104.5499
680.74	103.1287
680.86	102.6660
680.98	101.9608
681.10	103.1653
681.22	104.3192
681.35	102.2050
681.47	101.7669
681.59	101.9834
681.71	104.6276
681.83	101.7064
681.95	101.2806
682.07	104.1640
682.19	104.4816
682.31	102.6550
682.43	102.4640
682.56	104.5328
682.68	102.1811
682.80	102.6018
682.92	103.5185
683.04	103.7010
683.16	103.1771
683.28	102.2244
683.40	102.7976
683.52	102.8895
683.64	103.2450
683.76	101.7262
683.89	101.8582
684.01	101.8816
684.13	103.6378
684.25	102.6693
684.37	102.0573
684.49	102.9574
684.61	102.1243
684.73	102.6308
684.85	101.8575
684.97	101.8165
685.09	103.9712
685.21	101.1782
685.34	101.7362
685.46	104.6281
685.58	102.1529
685.70	101.9712
685.82	102.6472
685.94	102.2586
686.06	102.2936
686.18	102.5825
686.30	102.4022
686.42	101.8966
686.54	103.1814
686.66	101.4608
686.79	103.4407
686.91	102.7164
687.03	104.0720
687.15	102.3748
687.27	101.6717
687.39	102.8713
687.51	103.7358
687.63	102.6477
687.75	103.0792
687.87	103.2580
687.99	103.8070
688.11	101.4284
688.23	102.6675
688.35	104.1211
688.48	102.8705
688.60	101.9017
688.72	101.6515
688.84	103.0642
688.96	103.0987
689.08	102.2158
689.20	102.1243
689.32	105.0984
689.44	102.8889
689.56	102.0736
689.68	102.7986
689.80	103.0385
689.92	102.1878
690.04	101.7656
690.16	103.0302
690.28	103.1850
690.41	103.0753
690.53	100.4107
690.65	102.4835
690.77	103.4322
690.89	103.4922
691.01	101.9540
691.13	102.3725
691.25	102.0889
691.37	102.9255
691.49	102.6334
691.61	102.0853
691.73	104.1077
691.85	103.1638
691.97	101.6724
692.09	100.3676
692.21	102.2608
692.33	103.5411
692.45	101.6579
692.57	101.0515
692.70	102.9495
692.82	102.9859
692.94	101.4704
693.06	101.9050
693.18	102.6761
693.30	102.0624
693.42	101.4792
693.54	102.3681
693.66	102.0308
693.78	102.2584
693.90	100.7531
694.02	101.5819
694.14	101.6602
694.26	101.1370
694.38	101.9006
694.50	102.3533
694.62	102.5369
694.74	100.9854
694.86	101.1382
694.98	102.2708
695.10	102.3492
695.22	103.3404
695.34	102.0615
695.46	102.0746
695.58	102.6068
695.71	102.6245
695.83	101.6686
695.95	101.9224
696.07	103.1725
696.19	101.1823
696.31	100.4910
696.43	100.0881
696.55	103.5194
696.67	102.9646
696.79	101.5061
696.91	102.2612
697.03	102.1506
697.15	103.9722
697.27	101.8574
697.39	100.7126
697.51	102.8369
697.63	100.8336
697.75	101.0647
697.87	101.8839
697.99	101.8554
698.11	101.1179
698.23	101.3532
698.35	101.0992
698.47	101.5856
698.59	101.6665
698.71	101.1707
698.83	102.0391
698.95	100.9086
699.07	101.4149
699.19	101.4700
699.31	101.3547
699.43	100.4223
699.55	102.5314
699.67	100.8360
699.79	101.1885
699.91	100.7668
700.03	100.6018
700.15	101.3054
700.27	101.3260
700.39	102.2367
700.51	101.2842
700.63	101.5940
700.75	101.5655
700.87	102.1558
700.99	102.1104
701.11	101.6469
701.24	101.6280
701.36	102.1922
701.48	102.9498
701.60	102.3443
701.72	100.1924
701.84	103.0321
701.96	102.3408
702.08	101.0477
702.20	101.6796
702.32	101.8020
702.44	102.0644
702.56	100.4601
702.68	101.0192
702.80	101.7009
702.92	103.0309
703.04	101.8348
703.16	101.0135
703.28	101.7330
703.40	100.9021
703.52	101.3639
703.64	101.9723
703.76	102.2157
703.88	101.6998
704.00	101.2749
704.12	101.4623
704.24	102.4511
704.36	101.9417
704.48	101.4625
704.60	99.8707
704.72	101.4336
704.84	100.7297
704.96	101.5533
705.07	101.7910
705.19	100.7759
705.31	101.5845
705.43	101.8920
705.55	100.4270
705.67	102.0532
705.79	102.3416
705.91	100.4558
706.03	101.0040
706.15	102.0731
706.27	101.6854
706.39	100.0451
706.51	100.8168
706.63	100.4761
706.75	101.1074
706.87	100.7801
706.99	102.0276
707.11	101.2594
707.23	101.0447
707.35	102.2678
707.47	101.3307
707.59	101.6954
707.71	102.3760
707.83	100.8160
707.95	101.1224
708.07	100.4334
708.19	103.4229
708.31	101.2624
708.43	99.1877
708.55	101.5024
708.67	103.4146
708.79	101.5902
708.91	100.2511
709.03	101.1590
709.15	102.3255
709.27	100.1986
709.39	100.0733
709.51	100.7808
709.63	102.2845
709.75	101.6262
709.87	99.5020
709.99	101.4590
710.11	100.2298
710.23	100.6165
710.35	100.0995
710.47	103.1762
710.58	101.5100
710.70	101.2112
710.82	101.4250
710.94	101.1395
711.06	100.7623
711.18	100.6308
711.30	100.1054
711.42	101.4858
711.54	101.8215
711.66	100.1287
711.78	99.1627
711.90	101.5733
712.02	102.5990
712.14	100.1390
712.26	99.6935
712.38	102.5364
712.50	102.1103
712.62	100.4681
712.74	100.1005
712.86	100.5372
712.98	101.4769
713.10	99.7267
713.22	99.8040
713.34	101.6124
713.45	100.7626
713.57	100.8000
713.69	99.8057
713.81	100.3939
713.93	101.2595
714.05	100.0614
714.17	98.7370
714.29	102.0757
714.41	101.9643
714.53	100.2512
714.65	101.2898
714.77	100.8273
714.89	100.3437
715.01	102.0889
715.13	100.6382
715.25	100.2098
715.37	100.1663
715.49	99.7732
715.61	101.2280
715.72	102.0816
715.84	102.5619
715.96	100.6492
716.08	100.0616
716.20	102.5896
716.32	102.0334
716.44	100.3942
716.56	100.3614
716.68	100.7024
716.80	102.4225
716.92	101.5095
717.04	100.4878
717.16	100.7519
717.28	99.4714
717.40	100.1337
717.52	100.1793
717.63	99.5231
717.75	99.6838
717.87	100.4304
717.99	100.4315
718.11	99.9246
718.23	101.4977
718.35	100.5044
718.47	100.0203
718.59	99.3658
718.71	100.9605
718.83	100.4463
718.95	100.9090
719.07	100.1837
719.19	100.2293
719.30	100.6526
719.42	100.6917
719.54	100.3632
719.66	100.8863
719.78	101.2399
719.90	99.0726
720.02	100.7539
720.14	100.3101
720.26	100.7733
720.38	100.8612
720.50	99.8137
720.62	99.1560
720.74	100.2735
720.85	99.1919
720.97	101.6472
721.09	102.2124
721.21	99.4880
721.33	101.0434
721.45	100.4193
721.57	100.9896
721.69	99.4569
721.81	98.0478
721.93	101.1609
722.05	100.0509
722.16	99.0425
722.28	98.5866
722.40	99.3715
722.52	101.2906
722.64	101.3251
722.76	98.6191
722.88	100.9866
723.00	100.5995
723.12	99.8906
723.24	100.7105
723.36	98.8513
723.47	101.1694
723.59	100.3485
723.71	98.7973
723.83	100.1304
723.95	98.6899
724.07	99.6358
724.19	100.3912
724.31	102.3287
724.43	99.9024
724.55	98.6033
724.66	99.9122
724.78	104.1721
724.90	99.5509
725.02	99.8579
725.14	99.8926
725.26	100.9291
725.38	98.3469
725.50	99.8241
725.62	100.8858
725.74	99.2066
725.85	98.9683
725.97	97.3024
726.09	98.8482
726.21	104.3002
726.33	98.9511
726.45	97.9792
726.57	98.6665
726.69	100.7287
726.81	99.3274
726.92	99.1465
727.04	99.6262
727.16	99.7345
727.28	99.2164
727.40	99.8335
727.52	98.9647
727.64	102.3733
727.76	101.7160
727.88	99.7506
727.99	98.9253
728.11	99.8262
728.23	100.3632
728.35	100.3603
728.47	99.2851
728.59	99.7824
728.71	100.1441
728.83	99.2644
728.94	99.2317
729.06	101.3083
729.18	100.3426
729.30	99.1640
729.42	98.4726
729.54	100.9002
729.66	101.3149
729.78	99.2548
729.90	100.0140
730.01	100.2920
730.13	98.1070
730.25	99.7847
730.37	99.2433
730.49	100.2342
730.61	99.0583
730.73	99.0397
730.84	99.8179
730.96	99.3180
731.08	100.3217
731.20	98.9676
731.32	98.6822
731.44	102.5240
731.56	99.7531
731.68	97.9698
731.79	100.1407
731.91	99.2458
732.03	99.2074
732.15	99.7087
732.27	98.6362
732.39	98.6575
732.51	100.4154
732.62	99.1585
732.74	98.8305
732.86	101.3972
732.98	99.7828
733.10	99.2121
733.22	100.2850
733.34	101.1965
733.45	99.2244
733.57	100.4410
733.69	98.8954
733.81	99.7767
733.93	100.2536
734.05	98.4255
734.17	99.3943
734.28	99.6911
734.40	100.2060
734.52	98.3236
734.64	99.5098
734.76	101.5550
734.88	99.5572
735.00	98.6113
735.11	99.4035
735.23	101.1735
735.35	98.6874
735.47	97.8517
735.59	99.7158
735.71	99.3612
735.83	99.7680
735.94	99.7141
736.06	99.3508
736.18	99.3521
736.30	100.5615
736.42	99.6955
736.54	98.4588
736.65	99.6066
736.77	102.6518
736.89	99.7134
737.01	98.5895
737.13	102.4870
737.25	97.7553
737.36	98.4851
737.48	99.1855
737.60	99.6367
737.72	98.8571
737.84	99.1250
737.96	100.0463
738.08	98.2956
738.19	100.5375
738.31	98.2885
738.43	98.8275
738.55	99.6294
738.67	99.3772
738.79	98.5333
738.90	99.4913
739.02	100.4985
739.14	98.6786
739.26	98.9566
739.38	98.9882
739.50	100.1453
739.61	98.8132
739.73	99.0681
739.85	98.3996
739.97	99.6767
740.09	100.8462
740.20	97.9244
740.32	99.3771
740.44	100.4709
740.56	98.3620
740.68	98.7316
740.80	99.0473
740.91	99.8055
741.03	99.9098
741.15	99.3068
741.27	97.8925
741.39	100.0537
741.51	98.8632
741.62	99.7001
741.74	99.7769
741.86	99.6724
741.98	100.1524
742.10	100.0836
742.21	99.0857
742.33	99.4109
742.45	98.5127
742.57	99.8578
742.69	98.6548
742.80	100.1937
742.92	99.6248
743.04	99.0269
743.16	98.2187
743.28	100.7455
743.40	98.5876
743.51	98.2738
743.63	98.4417
743.75	99.5771
743.87	99.3738
743.99	98.8567
744.10	98.6769
744.22	98.7175
744.34	98.8918
744.46	99.6158
744.58	99.5188
744.69	97.7916
744.81	99.7368
744.93	97.8742
745.05	97.4610
745.17	100.9365
745.28	100.4736
745.40	98.7865
745.52	98.1331
745.64	98.3977
745.76	99.6512
745.87	98.4465
745.99	97.7497
746.11	99.8405
746.23	99.4376
746.35	98.4248
746.46	98.1156
746.58	101.0251
746.70	98.7062
746.82	98.5298
746.94	98.9205
747.05	98.3203
747.17	98.3200
747.29	97.7074
747.41	98.0616
747.53	101.9766
747.64	97.1460
747.76	98.6046
747.88	99.0126
748.00	99.1531
748.12	98.5751
748.23	98.0924
748.35	98.4349
748.47	99.3253
748.59	99.1457
748.70	98.5066
748.82	97.8421
748.94	98.9559
749.06	99.4564
749.18	98.9102
749.29	98.1470
749.41	99.7712
749.53	98.8649
749.65	98.7700
749.76	99.3747
749.88	98.7994
750.00	99.4801
750.12	99.9357
750.24	99.2015
750.35	99.0598
750.47	97.4026
750.59	99.1052
750.71	98.5843
750.82	99.5192
750.94	97.9769
751.06	98.2045
751.18	97.9904
751.30	99.6199
751.41	99.8492
751.53	98.9434
751.65	97.9899
751.77	98.0423
751.88	99.4256
752.00	99.1587
752.12	97.3675
752.24	99.3504
752.35	98.6339
752.47	97.9615
752.59	98.2140
752.71	99.5814
752.83	96.9325
752.94	99.3874
753.06	97.7221
753.18	99.5773
753.30	98.8931
753.41	98.1601
753.53	98.6951
753.65	99.4758
753.77	100.1860
753.88	98.2557
754.00	98.2269
754.12	99.1562
754.24	100.6812
754.35	98.0755
754.47	96.6089
754.59	100.4031
754.71	99.8004
754.82	99.4543
754.94	98.2034
755.06	100.1270
755.18	99.2136
755.29	98.2373
755.41	97.7866
755.53	100.1817
755.65	98.3484
755.76	98.9623
755.88	99.2384
756.00	100.9837
756.12	99.0785
756.23	96.4101
756.35	98.6568
756.47	100.4763
756.59	98.8071
756.70	98.3190
756.82	99.4393
756.94	99.2555
757.06	100.4265
757.17	99.2612
757.29	99.0882
757.41	97.9841
757.53	99.4508
757.64	98.9203
757.76	98.4955
757.88	100.6011
758.00	99.7481
758.11	98.3290
758.23	97.3786
758.35	100.0673
758.47	98.0244
758.58	99.6890
758.70	98.2240
758.82	98.9883
758.94	98.7915
759.05	99.9019
759.17	97.4335
759.29	98.5024
759.40	100.1817
759.52	98.5041
759.64	97.9759
759.76	99.5297
759.87	99.4291
759.99	98.4282
760.11	97.5401
760.23	98.9251
760.34	99.6956
760.46	99.0157
760.58	97.8599
760.70	98.4957
760.81	99.5958
760.93	98.1663
761.05	99.0357
761.16	98.9605
761.28	98.3544
761.40	98.5248
761.52	97.2010
761.63	100.9025
761.75	99.3138
761.87	98.6196
761.98	98.2491
762.10	100.3374
762.22	98.9980
762.34	99.7067
762.45	98.2989
762.57	99.4940
762.69	102.2588
762.81	97.6257
762.92	98.0647
763.04	96.6249
763.16	99.9444
763.27	101.0338
763.39	98.6519
763.51	100.5011
763.63	101.0748
763.74	99.6114
763.86	98.1368
763.98	99.2420
764.09	98.9079
764.21	99.3644
764.33	97.4127
764.44	98.3660
764.56	99.3318
764.68	98.4028
764.80	98.3608
764.91	96.8406
765.03	100.3381
765.15	98.1645
765.26	97.9577
765.38	97.3894
765.50	100.1472
765.62	98.7585
765.73	98.6458
765.85	100.1234
765.97	97.9426
766.08	99.1487
766.20	99.9314
766.32	98.8271
766.43	99.3702
766.55	99.6835
766.67	98.4221
766.79	98.8914
766.90	98.0713
767.02	97.9417
767.14	97.9679
767.25	97.0619
767.37	102.1658
767.49	98.6484
767.60	97.8497
767.72	100.3345
767.84	99.7911
767.95	97.9850
768.07	97.6128
768.19	98.9137
768.31	99.7059
768.42	99.2524
768.54	97.8792
768.66	98.0487
768.77	99.0514
768.89	98.9087
769.01	97.4494
769.12	99.6423
769.24	99.7991
769.36	98.3569
769.47	98.2637
769.59	98.2630
769.71	100.9649
769.82	99.4786
769.94	98.5907
770.06	97.7446
770.17	101.2156
770.29	99.9474
770.41	99.8586
770.53	100.7350
770.64	98.6402
770.76	98.4546
770.88	99.2435
770.99	99.7444
771.11	98.0076
771.23	98.1589
771.34	97.5452
771.46	100.5128
771.58	100.3258
771.69	98.2000
771.81	97.3895
771.93	99.6243
772.04	98.1250
772.16	99.2701
772.28	98.9617
772.39	100.7346
772.51	99.1971
772.63	99.9234
772.74	97.7797
772.86	98.8838
772.98	102.9316
773.09	97.7503
773.21	97.7049
773.33	99.3115
773.44	99.9123
773.56	98.3009
773.68	99.1069
773.79	100.9900
773.91	98.5702
774.03	98.2933
774.14	98.5023
774.26	101.3037
774.38	97.8208
774.49	97.5734
774.61	98.9448
774.73	99.6661
774.84	97.9743
774.96	98.0519
775.08	98.3132
775.19	99.6142
775.31	99.8544
775.43	98.2508
775.54	97.9532
775.66	97.7022
775.77	100.6698
775.89	97.4113
776.01	99.2085
776.12	100.7912
776.24	99.5124
776.36	97.6376
776.47	98.2624
776.59	100.8393
776.71	101.5987
776.82	97.4820
776.94	97.4402
777.06	98.9818
777.17	100.5394
777.29	98.2575
777.41	98.4540
777.52	100.7171
777.64	98.7207
777.75	100.1273
777.87	96.6402
777.99	98.5238
778.10	101.2179
778.22	98.3445
778.34	98.5930
778.45	98.2979
778.57	100.0821
778.69	99.1837
778.80	97.6082
778.92	102.0135
779.04	98.3477
779.15	97.6872
779.27	98.9149
779.38	100.2495
779.50	101.1162
779.62	97.8105
779.73	98.5431
779.85	97.4465
779.97	102.9821
780.08	98.4617
780.20	97.4035
780.31	99.7424
780.43	100.1192
780.55	97.8841
780.66	97.8421
780.78	100.2676
780.90	102.7774
781.01	98.1838
781.13	99.5174
781.25	99.6820
781.36	101.4767
781.48	98.2207
781.59	97.9687
781.71	100.6201
781.83	100.3909
781.94	98.1787
782.06	97.9205
782.18	101.2744
782.29	99.3079
782.41	96.9490
782.52	101.1004
782.64	100.5734
782.76	98.4881
782.87	98.9006
782.99	96.3824
783.10	101.8159
783.22	102.4396
783.34	97.5420
783.45	97.6466
783.57	98.6593
783.69	97.8768
783.80	98.6371
783.92	99.1171
784.03	98.3384
784.15	97.6922
784.27	98.3915
784.38	98.5283
784.50	100.2057
784.61	100.6330
784.73	98.5131
784.85	98.8969
784.96	98.8036
785.08	100.9429
785.19	100.1031
785.31	98.7579
785.43	97.8643
785.54	96.9428
785.66	99.1485
785.77	99.3914
785.89	100.4459
786.01	96.9456
786.12	99.0764
786.24	99.0183
786.35	102.2159
786.47	99.3438
786.59	97.7013
786.70	98.9409
786.82	100.7027
786.93	100.4234
787.05	99.3805
787.17	98.8500
787.28	98.7496
787.40	99.2099
787.51	99.4993
787.63	100.2596
787.75	98.6959
787.86	100.4647
787.98	100.5683
788.09	99.2624
788.21	100.1160
788.33	100.6522
788.44	99.8468
788.56	98.8317
788.67	101.1072
788.79	99.6552
788.91	99.8818
789.02	99.0917
789.14	98.3370
789.25	102.1891
789.37	98.8544
789.48	98.3627
789.60	100.3703
789.72	97.6987
789.83	100.8543
789.95	101.3685
790.06	97.6595
790.18	97.8980
790.30	100.8607
790.41	100.7830
790.53	100.1701
790.64	99.3931
790.76	98.5481
790.87	99.7646
790.99	100.3076
791.11	100.6817
791.22	98.0835
791.34	98.1042
791.45	100.4667
791.57	99.9289
791.68	96.7637
791.80	96.6165
791.92	101.6452
792.03	98.6722
792.15	98.2962
792.26	99.2167
792.38	98.1388
792.49	100.8111
792.61	98.4759
792.73	97.3095
792.84	97.9331
792.96	98.1137
793.07	92.4631
793.19	128.2350
793.30	99.0603
793.42	97.8351
793.54	97.5699
793.65	98.6453
793.77	106.0569
793.88	100.7803
794.00	97.6771
794.11	99.7602
794.23	99.3718
794.34	101.5883
794.46	98.0674
794.58	98.0884
794.69	104.0999
794.81	102.4716
794.92	97.4084
795.04	97.5720
795.15	102.9898
795.27	101.5164
795.39	100.5078
795.50	98.8152
795.62	99.3996
795.73	100.4544
795.85	98.5941
795.96	99.5369
796.08	102.7000
796.19	98.8832
796.31	98.9590
796.42	97.7486
796.54	99.2186
796.66	102.6674
796.77	97.6697
796.89	97.4213
797.00	103.0482
797.12	96.6264
797.23	98.5971
797.35	99.9474
797.46	100.6385
797.58	101.5373
797.69	99.9593
797.81	98.0635
797.93	99.1521
798.04	98.7179
798.16	99.4393
798.27	100.6500
798.39	99.3967
798.50	98.8423
798.62	98.6564
798.73	97.7108
798.85	102.7632
798.96	98.3787
799.08	99.1539
799.19	100.6121
799.31	99.9753
799.43	100.6294
799.54	97.9863
799.66	99.3597
799.77	101.9607
799.89	98.4644
800.00	96.5186
800.12	99.0079
800.23	102.0020
800.35	102.8087
800.46	96.9547
800.58	97.0394
800.69	100.4092
800.81	99.5155
800.92	98.1745
801.04	100.1306
801.16	97.8810
801.27	98.2965
801.39	98.5095
801.50	99.1533
801.62	99.3634
801.73	103.0893
801.85	101.6938
801.96	97.5331
802.08	102.1601
802.19	102.6024
802.31	97.0058
802.42	97.9841
802.54	102.5807
802.65	101.3952
802.77	97.3017
802.88	100.1022
803.00	97.1227
803.11	105.4339
803.23	99.9764
803.34	99.5009
803.46	101.1113
803.57	99.9600
803.69	101.5892
803.80	98.2806
803.92	102.4433
804.03	99.9120
804.15	99.3155
804.26	100.4796
804.38	100.9550
804.50	97.8281
804.61	100.1876
804.73	100.3563
804.84	100.6289
804.96	97.7066
805.07	100.2438
805.19	98.2741
805.30	102.2037
805.42	103.1066
805.53	100.9677
805.65	98.8391
805.76	98.2777
805.88	99.1536
805.99	100.8511
806.11	101.0102
806.22	99.4776
806.34	101.1027
806.45	100.5032
806.57	101.1111
806.68	103.7583
806.80	98.0350
806.91	100.6537
807.03	100.9692
807.14	99.6508
807.26	99.8370
807.37	99.9050
807.49	100.4685
807.60	98.4962
807.72	103.8325
807.83	104.0385
807.95	99.9525
808.06	100.4995
808.17	101.6933
808.29	102.7159
808.40	98.6928
808.52	100.7322
808.63	101.1752
808.75	99.0443
808.86	99.8876
808.98	101.4555
809.09	98.7650
809.21	100.4664
809.32	100.0352
809.44	103.4030
809.55	98.5000
809.67	101.1014
809.78	97.4461
809.90	101.4626
810.01	104.5197
810.13	98.5746
810.24	101.6084
810.36	98.3988
810.47	99.2336
810.59	101.5904
810.70	103.4936
810.82	105.9039
810.93	100.2669
811.05	100.7173
811.16	102.4363
811.27	100.9218
811.39	103.1460
811.50	105.6047
811.62	100.2785
811.73	98.1940
811.85	105.2594
811.96	102.9514
812.08	102.5949
812.19	101.8474
812.31	103.5632
812.42	102.4686
812.54	99.8091
812.65	105.7218
812.77	105.4228
812.88	103.1583
813.00	103.5157
813.11	102.9213
813.22	100.9470
813.34	100.0727
813.45	101.1963
813.57	109.8749
813.68	110.6323
813.80	102.9106
813.91	97.9911
814.03	102.8055
814.14	111.0452
814.26	99.3192
814.37	102.4792
814.49	103.6589
814.60	101.3867
814.71	100.7695
814.83	101.8875
814.94	98.6650
815.06	101.9503
815.17	103.9143
815.29	100.6309
815.40	99.7102
815.52	111.4542
815.63	101.8572
815.75	99.9841
815.86	105.0311
815.97	98.8872
816.09	104.6230
816.20	106.7621
816.32	107.5140
816.43	99.9185
816.55	104.0063
816.66	100.5073
816.78	113.2192
816.89	104.3523
817.00	104.6522
817.12	103.0515
817.23	103.0252
817.35	112.7153
817.46	106.3164
817.58	100.2516
817.69	115.2701
817.81	104.3268
817.92	107.8164
818.03	105.8386
818.15	107.1864
818.26	104.2833
818.38	104.1267
818.49	105.8208
818.61	92.3569
818.72	81.4138
818.83	200.0000
818.95	106.0186
819.06	83.5709
819.18	104.6913
819.29	108.8145
819.41	103.0831
819.52	108.3222
819.64	112.1439
819.75	107.6284
819.86	105.0675
819.98	110.6512
820.09	116.1556
820.21	109.8744
820.32	102.0149
820.44	112.3962
820.55	120.4066
820.66	103.1244
820.78	109.9011
820.89	106.7247
821.01	112.9409
821.12	109.7699
821.23	110.8980
821.35	106.1548
821.46	121.4129
821.58	108.8250
821.69	103.1634
821.81	105.7306
821.92	126.0333
822.03	110.5212
822.15	112.3995
822.26	108.7840
822.38	108.9015
822.49	114.9861
822.61	109.0978
822.72	113.6793
822.83	125.4696
822.95	108.6720
823.06	107.9307
823.18	126.5514
823.29	136.1063
823.40	120.1428
823.52	110.1549
823.63	104.2152
823.75	155.7420
823.86	121.0232
823.97	108.8981
824.09	136.3888
824.20	114.4950
824.32	119.8315
824.43	110.0778
824.55	130.9498
824.66	160.2556
824.77	114.9265
824.89	118.7929
825.00	154.8799
825.12	136.7101
825.23	135.4361
825.34	111.7073
825.46	124.8386
825.57	170.7808
825.69	141.7681
825.80	119.9883
825.91	144.9966
826.03	136.3672
826.14	161.6215
826.26	130.2630
826.37	148.9821
826.48	144.3940
826.60	150.0285
826.71	135.0758
826.83	158.7473
826.94	165.5334
827.05	171.8057
827.17	180.7528
827.28	161.9324
827.39	171.3425
827.51	145.6730
827.62	189.3145
827.74	200.0000
827.85	200.0000
827.96	156.6863
828.08	175.0883
828.19	200.0000
828.31	187.9896
828.42	119.8248
828.53	200.0000
828.65	200.0000
828.76	200.0000
828.87	200.0000
828.99	200.0000
