Wavelength (nm)	Reflectance (%)
377.35	200.0000
377.48	200.0000
377.62	200.0000
377.75	200.0000
377.88	200.0000
378.02	200.0000
378.15	200.0000
378.28	200.0000
378.41	200.0000
378.55	200.0000
378.68	200.0000
378.81	200.0000
378.95	200.0000
379.08	200.0000
379.21	200.0000
379.35	200.0000
379.48	200.0000
379.61	0.0000
379.74	0.0000
379.88	0.0000
380.01	0.0000
380.14	0.0000
380.28	0.0000
380.41	0.0000
380.54	0.0000
380.68	0.0000
380.81	0.0000
380.94	0.0000
381.07	0.0000
381.21	0.0000
381.34	0.0000
381.47	0.0000
381.61	0.0000
381.74	0.0000
381.87	0.0000
382.00	0.0000
382.14	0.0000
382.27	0.0000
382.40	0.0000
382.54	0.0000
382.67	0.0000
382.80	0.0000
382.93	0.0000
383.07	0.0000
383.20	0.0000
383.33	0.0000
383.47	0.0000
383.60	0.0000
383.73	0.0000
383.86	0.0000
384.00	0.0000
384.13	0.0000
384.26	0.0000
384.40	0.0000
384.53	0.0000
384.66	0.0000
384.79	0.0000
384.93	0.0000
385.06	0.0000
385.19	0.0000
385.33	0.0000
385.46	0.0000
385.59	0.0000
385.72	0.0000
385.86	0.0000
385.99	0.0000
386.12	0.0000
386.25	0.0000
386.39	0.0000
386.52	0.0000
386.65	0.0000
386.79	0.0000
386.92	0.0000
387.05	0.0000
387.18	0.0000
387.32	0.0000
387.45	0.0000
387.58	0.0000
387.71	0.0000
387.85	0.0000
387.98	0.0000
388.11	0.0000
388.25	0.0000
388.38	0.0000
388.51	0.0000
388.64	0.0000
388.78	0.0000
388.91	0.0000
389.04	0.0000
389.17	0.0000
389.31	0.0000
389.44	0.0000
389.57	0.0000
389.70	0.0000
389.84	0.0000
389.97	0.0000
390.10	0.0000
390.24	0.0000
390.37	0.0000
390.50	0.0000
390.63	0.0000
390.77	0.0000
390.90	0.0000
391.03	0.0000
391.16	0.0000
391.30	0.0000
391.43	0.0000
391.56	0.0000
391.69	0.0000
391.83	0.0000
391.96	0.0000
392.09	0.0000
392.22	0.0000
392.36	0.0000
392.49	0.0000
392.62	0.0000
392.75	0.0000
392.89	0.0000
393.02	0.0000
393.15	0.0000
393.28	0.0000
393.42	0.0000
393.55	0.0000
393.68	0.0000
393.81	0.0000
393.95	0.0000
394.08	0.0000
394.21	0.0000
394.34	0.0000
394.48	0.0000
394.61	0.0000
394.74	0.0000
394.87	0.0000
395.01	0.0000
395.14	0.0000
395.27	0.0000
395.40	0.0000
395.54	0.0000
395.67	0.0000
395.80	0.0000
395.93	0.0000
396.07	0.0000
396.20	0.0000
396.33	0.0000
396.46	0.0000
396.59	0.0000
396.73	0.0000
396.86	0.0000
396.99	0.0000
397.12	0.0000
397.26	0.0000
397.39	0.0000
397.52	0.0000
397.65	0.0000
397.79	0.0000
397.92	0.0000
398.05	0.3182
398.18	0.0000
398.32	0.0000
398.45	0.0000
398.58	0.0000
398.71	0.0000
398.84	0.0000
398.98	0.0000
399.11	0.0000
399.24	0.0000
399.37	0.0000
399.51	0.0000
399.64	0.0000
399.77	0.0000
399.90	0.0000
400.03	0.0000
400.17	0.0000
400.30	0.0000
400.43	0.0000
400.56	0.0000
400.70	0.0000
400.83	0.0000
400.96	0.0000
401.09	0.0000
401.23	0.0000
401.36	0.0000
401.49	0.0000
401.62	0.0000
401.75	9.2896
401.89	4.4324
402.02	0.8354
402.15	0.0000
402.28	0.0000
402.41	4.7387
402.55	0.0000
402.68	0.0000
402.81	2.7361
402.94	6.8829
403.08	0.0000
403.21	0.0000
403.34	9.5652
403.47	0.0000
403.60	0.0000
403.74	0.0000
403.87	0.0000
404.00	0.0000
404.13	0.0000
404.26	0.0000
404.40	0.0000
404.53	5.2500
404.66	0.0000
404.79	0.0000
404.93	15.5009
405.06	16.6132
405.19	5.7597
405.32	5.2487
405.45	9.7211
405.59	8.3114
405.72	0.0000
405.85	0.0000
405.98	10.6601
406.11	7.1031
406.25	0.0000
406.38	13.4277
406.51	15.7079
406.64	12.7383
406.77	5.3115
406.91	12.9345
407.04	17.3963
407.17	17.2939
407.30	4.1575
407.43	4.8835
407.57	12.1874
407.70	14.1427
407.83	12.4693
407.96	9.9727
408.09	23.2327
408.23	26.0778
408.36	6.6025
408.49	1.8810
408.62	22.7759
408.75	17.1472
408.89	10.0872
409.02	13.9913
409.15	20.3397
409.28	25.3916
409.41	10.5570
409.55	12.9292
409.68	31.5317
409.81	28.1951
409.94	16.9688
410.07	30.3089
410.20	31.5013
410.34	26.3475
410.47	21.8702
410.60	24.2379
410.73	24.1396
410.86	23.9229
411.00	20.8989
411.13	24.5995
411.26	20.2994
411.39	21.6887
411.52	19.3415
411.66	23.0594
411.79	24.6014
411.92	31.4531
412.05	30.1113
412.18	26.6335
412.31	23.8764
412.45	31.5873
412.58	27.6987
412.71	18.2765
412.84	27.0191
412.97	35.2149
413.11	22.5898
413.24	11.1959
413.37	27.4396
413.50	29.9259
413.63	22.2673
413.76	25.6408
413.90	40.2931
414.03	38.1770
414.16	35.4449
414.29	27.9704
414.42	33.0233
414.56	33.2196
414.69	30.4287
414.82	25.2945
414.95	36.7800
415.08	30.5180
415.21	34.7291
415.35	29.5853
415.48	28.5307
415.61	38.5611
415.74	40.7483
415.87	20.7859
416.00	28.4665
416.14	39.2995
416.27	29.7229
416.40	23.9538
416.53	35.1612
416.66	39.2633
416.79	30.2579
416.93	29.1582
417.06	35.8776
417.19	40.3676
417.32	39.6201
417.45	34.3364
417.58	38.9304
417.72	40.0734
417.85	31.3643
417.98	29.3931
418.11	39.1459
418.24	37.5544
418.37	36.5846
418.51	34.0543
418.64	33.2910
418.77	39.3747
418.90	35.6115
419.03	31.5764
419.16	43.8841
419.29	51.4741
419.43	36.5117
419.56	36.8464
419.69	48.0671
419.82	46.5226
419.95	36.2844
420.08	37.2395
420.22	40.3152
420.35	38.1147
420.48	41.2104
420.61	38.1884
420.74	49.5921
420.87	54.2489
421.00	48.5441
421.14	36.7395
421.27	46.2873
421.40	45.9495
421.53	41.0584
421.66	41.1974
421.79	47.4510
421.93	48.8893
422.06	43.4566
422.19	41.3168
422.32	45.5469
422.45	50.9069
422.58	44.0271
422.71	42.1120
422.85	48.7397
422.98	51.2140
423.11	46.2535
423.24	47.7270
423.37	51.1630
423.50	49.9108
423.63	48.5249
423.77	45.2692
423.90	43.8112
424.03	45.9020
424.16	46.1209
424.29	43.5638
424.42	49.2714
424.55	52.4930
424.69	51.4276
424.82	52.1470
424.95	50.2809
425.08	50.9766
425.21	50.5158
425.34	48.2514
425.47	49.3766
425.60	52.5500
425.74	48.6988
425.87	46.5498
426.00	50.9357
426.13	51.1964
426.26	51.2571
426.39	46.6484
426.52	50.7344
426.66	55.9313
426.79	46.7666
426.92	41.9508
427.05	51.2772
427.18	51.5004
427.31	46.6110
427.44	49.2285
427.57	56.2603
427.71	54.9300
427.84	48.2720
427.97	46.0864
428.10	52.9294
428.23	59.7535
428.36	51.0615
428.49	49.7190
428.62	53.6342
428.76	56.8409
428.89	48.8973
429.02	48.9187
429.15	59.3192
429.28	58.9574
429.41	52.8253
429.54	48.6196
429.67	56.7824
429.81	57.6618
429.94	52.5216
430.07	46.3636
430.20	52.3740
430.33	53.8257
430.46	48.1762
430.59	53.4288
430.72	59.0933
430.85	59.6691
430.99	55.2814
431.12	54.2705
431.25	55.9894
431.38	59.7960
431.51	53.1898
431.64	52.3981
431.77	58.1641
431.90	58.2421
432.03	53.3769
432.17	56.3220
432.30	61.1626
432.43	59.5659
432.56	56.2168
432.69	54.5584
432.82	57.0135
432.95	56.5234
433.08	56.4706
433.21	56.7301
433.35	61.8148
433.48	61.5594
433.61	60.9780
433.74	57.0311
433.87	59.3406
434.00	58.8633
434.13	56.9807
434.26	54.3848
434.39	59.3585
434.53	60.5337
434.66	61.0460
434.79	59.3084
434.92	66.0392
435.05	66.5229
435.18	60.4635
435.31	58.3753
435.44	63.8274
435.57	64.2361
435.70	59.4722
435.84	57.1765
435.97	61.1922
436.10	62.5249
436.23	58.3025
436.36	60.1827
436.49	66.4427
436.62	62.4252
436.75	58.3507
436.88	58.0969
437.01	61.3602
437.14	62.6628
437.28	60.0277
437.41	58.5691
437.54	62.4278
437.67	65.0437
437.80	56.9396
437.93	57.8615
438.06	64.4404
438.19	64.0356
438.32	58.5025
438.45	61.3118
438.58	63.1401
438.72	62.1936
438.85	60.2291
438.98	58.6716
439.11	61.9495
439.24	63.6887
439.37	58.6158
439.50	59.2321
439.63	64.1334
439.76	66.4349
439.89	64.5180
440.02	63.0307
440.15	63.9490
440.29	66.0842
440.42	62.1068
440.55	58.7822
440.68	66.3262
440.81	67.6474
440.94	60.3463
441.07	62.4055
441.20	68.9557
441.33	67.1804
441.46	63.8790
441.59	68.3937
441.72	68.9098
441.85	68.2321
441.99	63.9590
442.12	63.9552
442.25	63.5070
442.38	65.2191
442.51	63.3129
442.64	64.8529
442.77	66.9906
442.90	68.3930
443.03	66.6734
443.16	63.8046
443.29	66.6963
443.42	64.9281
443.55	64.9058
443.68	65.3026
443.82	69.1862
443.95	67.8253
444.08	68.8450
444.21	67.3753
444.34	67.6239
444.47	68.5188
444.60	69.9381
444.73	65.7947
444.86	66.1154
444.99	67.8722
445.12	67.6423
445.25	63.7412
445.38	66.3829
445.51	68.6443
445.64	70.4902
445.78	65.1316
445.91	67.0108
446.04	72.0749
446.17	69.5705
446.30	65.8965
446.43	73.6690
446.56	76.2851
446.69	70.4144
446.82	68.6470
446.95	69.8518
447.08	70.2184
447.21	67.4901
447.34	68.0688
447.47	71.5057
447.60	70.5515
447.73	68.0519
447.86	69.5039
447.99	69.8503
448.13	71.1003
448.26	69.9330
448.39	68.2686
448.52	69.4181
448.65	71.2298
448.78	67.0994
448.91	69.1810
449.04	70.3822
449.17	69.9203
449.30	69.1003
449.43	68.0935
449.56	68.1998
449.69	71.7455
449.82	69.0200
449.95	67.6510
450.08	71.3809
450.21	71.7656
450.34	67.9116
450.47	70.4041
450.60	73.7210
450.73	75.0524
450.87	73.2427
451.00	69.2748
451.13	71.7726
451.26	70.6034
451.39	67.8473
451.52	67.8108
451.65	74.2593
451.78	73.9227
451.91	70.3678
452.04	69.6592
452.17	74.0684
452.30	73.5745
452.43	69.3880
452.56	74.3059
452.69	74.0823
452.82	71.4415
452.95	73.1414
453.08	73.4819
453.21	74.1135
453.34	76.5556
453.47	74.0309
453.60	71.3256
453.73	73.3185
453.86	71.5981
453.99	71.4257
454.12	72.7867
454.25	74.4171
454.38	74.9447
454.52	74.3631
454.65	74.8379
454.78	74.9862
454.91	75.5077
455.04	75.5144
455.17	72.7862
455.30	73.4880
455.43	75.6916
455.56	72.9174
455.69	71.6100
455.82	75.7356
455.95	74.8606
456.08	73.3192
456.21	75.0792
456.34	75.5193
456.47	75.6060
456.60	75.2085
456.73	74.0828
456.86	74.9076
456.99	76.0962
457.12	73.6962
457.25	72.2514
457.38	73.8344
457.51	73.9384
457.64	73.2047
457.77	74.8217
457.90	76.6969
458.03	76.9131
458.16	74.6940
458.29	75.2725
458.42	76.8588
458.55	78.0480
458.68	75.7166
458.81	73.5362
458.94	75.2104
459.07	76.7756
459.20	75.2224
459.33	75.6374
459.46	79.4559
459.59	80.4381
459.72	76.4487
459.85	76.5116
459.98	79.7570
460.11	81.8785
460.24	77.3329
460.37	78.3306
460.50	80.5023
460.63	79.8241
460.76	76.2683
460.89	77.8700
461.02	78.9277
461.15	78.1233
461.28	75.2219
461.41	78.2123
461.54	79.5822
461.67	78.4875
461.80	77.7494
461.93	78.6028
462.06	78.1390
462.19	78.7750
462.32	77.8273
462.45	78.0823
462.58	79.9693
462.71	80.5730
462.84	79.0113
462.97	79.7599
463.10	79.5407
463.23	79.1079
463.36	78.6607
463.49	77.6301
463.62	78.6726
463.75	79.3062
463.88	80.7283
464.01	77.6262
464.14	79.7931
464.27	81.0104
464.40	79.8877
464.53	78.7051
464.66	80.9106
464.79	81.0574
464.92	79.3203
465.05	79.3448
465.18	79.0019
465.31	80.1674
465.44	80.3401
465.57	78.6845
465.70	81.0600
465.83	83.4170
465.96	80.8771
466.09	79.5488
466.22	82.8284
466.35	82.8346
466.48	81.1931
466.61	81.4164
466.74	81.6204
466.87	80.8971
467.00	78.7189
467.13	79.6114
467.26	82.5954
467.39	83.0577
467.52	81.0965
467.65	82.2969
467.78	81.8645
467.91	80.9227
468.04	80.6673
468.17	82.4310
468.30	82.9284
468.43	82.8408
468.56	81.4929
468.69	81.8928
468.82	82.2695
468.95	82.2127
469.08	82.4869
469.21	82.0705
469.34	81.7979
469.47	83.0866
469.60	83.1945
469.73	82.6241
469.86	85.1909
469.99	85.8278
470.11	83.5765
470.24	83.2392
470.37	84.3345
470.50	84.1024
470.63	82.9230
470.76	82.0287
470.89	83.1399
471.02	83.8733
471.15	81.6265
471.28	81.9001
471.41	85.0669
471.54	85.8094
471.67	83.3750
471.80	84.4625
471.93	86.0632
472.06	86.1186
472.19	82.8924
472.32	83.0842
472.45	84.0085
472.58	83.2980
472.71	82.4688
472.84	84.6613
472.97	85.0565
473.10	85.6276
473.23	84.9716
473.36	84.3204
473.49	84.2422
473.62	84.5314
473.74	83.9451
473.87	84.7098
474.00	84.5165
474.13	83.8448
474.26	84.4345
474.39	84.2835
474.52	83.8911
474.65	86.0354
474.78	86.9172
474.91	84.8571
475.04	85.1709
475.17	85.7870
475.30	83.5984
475.43	83.3124
475.56	85.0576
475.69	85.5036
475.82	84.6163
475.95	85.8578
476.08	86.0361
476.21	86.1859
476.34	84.8937
476.46	85.7645
476.59	85.8790
476.72	86.6080
476.85	85.7194
476.98	86.4376
477.11	87.2805
477.24	87.1159
477.37	86.0272
477.50	87.3160
477.63	88.1989
477.76	87.5886
477.89	86.7985
478.02	86.9317
478.15	86.3152
478.28	86.1056
478.41	85.6825
478.54	86.3173
478.66	86.9572
478.79	87.4215
478.92	87.0374
479.05	87.4214
479.18	87.5456
479.31	87.6331
479.44	88.0886
479.57	87.3426
479.70	87.7243
479.83	88.2250
479.96	87.0526
480.09	85.9524
480.22	86.9090
480.35	86.8703
480.48	86.8603
480.60	87.5876
480.73	88.2676
480.86	88.5772
480.99	88.2892
481.12	86.8361
481.25	87.4419
481.38	87.6849
481.51	87.1456
481.64	87.2716
481.77	88.4274
481.90	88.3140
482.03	87.2499
482.16	87.4372
482.29	87.2475
482.41	87.5278
482.54	87.2436
482.67	88.0146
482.80	88.7095
482.93	88.9412
483.06	88.3426
483.19	88.8389
483.32	88.9246
483.45	88.3043
483.58	87.5956
483.71	87.4708
483.84	87.2265
483.97	87.3282
484.09	86.9053
484.22	87.6538
484.35	88.0090
484.48	87.9485
484.61	87.5530
484.74	88.3062
484.87	88.2176
485.00	88.4971
485.13	88.3926
485.26	89.3340
485.39	88.2589
485.52	88.4505
485.64	88.3082
485.77	88.8415
485.90	88.3289
486.03	89.0851
486.16	88.6933
486.29	88.2916
486.42	87.8794
486.55	87.6123
486.68	87.5061
486.81	87.8490
486.94	88.1810
487.06	87.9551
487.19	88.4705
487.32	88.6011
487.45	88.5182
487.58	89.4141
487.71	89.4391
487.84	89.1213
487.97	89.5500
488.10	90.1610
488.23	89.2623
488.35	89.5944
488.48	89.7406
488.61	89.3821
488.74	89.2271
488.87	88.5611
489.00	88.6816
489.13	88.6989
489.26	88.4600
489.39	87.9678
489.52	88.6001
489.64	88.2826
489.77	88.4036
489.90	88.7301
490.03	88.9748
490.16	89.2984
490.29	89.0383
490.42	89.1632
490.55	89.0966
490.68	89.5788
490.81	88.7694
490.93	88.7471
491.06	88.7789
491.19	88.4714
491.32	88.2868
491.45	88.7405
491.58	89.1051
491.71	89.3420
491.84	89.1897
491.97	88.7028
492.09	89.3023
492.22	89.2274
492.35	88.8178
492.48	89.0499
492.61	88.8821
492.74	88.5494
492.87	88.9278
493.00	88.8904
493.12	89.0144
493.25	89.7840
493.38	89.9641
493.51	89.6786
493.64	89.8634
493.77	90.2211
493.90	89.5440
494.03	89.0106
494.16	89.7442
494.28	90.2632
494.41	89.4227
494.54	89.3534
494.67	89.6581
494.80	89.3262
494.93	88.8817
495.06	89.0896
495.19	89.6184
495.31	89.9178
495.44	89.3553
495.57	89.0519
495.70	89.8006
495.83	89.9456
495.96	89.3438
496.09	89.1732
496.22	89.9138
496.34	89.5724
496.47	88.9341
496.60	89.0501
496.73	89.9535
496.86	89.5291
496.99	90.1063
497.12	90.3824
497.24	90.4252
497.37	89.9445
497.50	90.0981
497.63	89.2616
497.76	89.4703
497.89	90.4625
498.02	90.8208
498.15	90.6350
498.27	90.8944
498.40	91.0546
498.53	90.3147
498.66	90.2937
498.79	90.3366
498.92	90.4892
499.05	89.9370
499.17	89.2495
499.30	89.1249
499.43	89.5735
499.56	89.1482
499.69	89.2197
499.82	90.0921
499.95	90.2256
500.07	89.6494
500.20	89.5557
500.33	90.0050
500.46	89.9240
500.59	89.6462
500.72	89.4715
500.85	89.7942
500.97	90.1590
501.10	90.1338
501.23	89.5427
501.36	89.8423
501.49	90.5852
501.62	89.9308
501.75	90.3017
501.87	91.0706
502.00	90.9215
502.13	90.4133
502.26	90.5659
502.39	90.6304
502.52	90.9728
502.64	90.7807
502.77	90.9791
502.90	91.4785
503.03	91.4905
503.16	90.7219
503.29	90.8153
503.42	90.6663
503.54	89.7109
503.67	88.9091
503.80	89.7716
503.93	90.1478
504.06	89.6547
504.19	89.9979
504.31	90.3415
504.44	90.0262
504.57	90.3952
504.70	90.8143
504.83	91.2641
504.96	91.5177
505.08	90.8576
505.21	90.4769
505.34	90.5273
505.47	90.5042
505.60	90.3718
505.73	90.3838
505.85	90.2644
505.98	90.6260
506.11	90.7330
506.24	90.9545
506.37	91.1716
506.50	91.3951
506.62	90.9967
506.75	90.4726
506.88	90.2665
507.01	90.3748
507.14	90.1143
507.27	90.1688
507.39	90.3059
507.52	90.2221
507.65	90.7326
507.78	90.6256
507.91	90.2956
508.04	90.3901
508.16	90.5603
508.29	90.4080
508.42	90.7007
508.55	90.8354
508.68	90.9198
508.81	91.2392
508.93	91.0324
509.06	90.9774
509.19	91.3039
509.32	91.0605
509.45	90.8253
509.57	90.8767
509.70	91.0548
509.83	91.0552
509.96	91.1507
510.09	90.8594
510.22	90.9116
510.34	90.3435
510.47	90.3627
510.60	90.4754
510.73	90.9020
510.86	91.0275
510.98	91.0853
511.11	90.8324
511.24	91.0402
511.37	90.6399
511.50	90.4361
511.63	90.9604
511.75	91.1570
511.88	91.0653
512.01	91.2411
512.14	91.4937
512.27	91.5204
512.39	91.2146
512.52	91.2418
512.65	91.4147
512.78	91.3697
512.91	91.1768
513.03	91.4466
513.16	91.4114
513.29	91.3635
513.42	90.8657
513.55	91.0726
513.67	91.1486
513.80	90.8721
513.93	90.6643
514.06	91.1211
514.19	91.0628
514.31	91.1857
514.44	91.4119
514.57	91.2257
514.70	91.4725
514.83	91.5435
514.95	91.1134
515.08	90.9250
515.21	91.2385
515.34	91.0987
515.47	90.8954
515.59	91.3597
515.72	91.1939
515.85	91.4257
515.98	91.1961
516.11	91.3219
516.23	91.1668
516.36	91.6017
516.49	90.8590
516.62	90.7489
516.75	91.0277
516.87	91.0543
517.00	90.3911
517.13	90.6792
517.26	91.4080
517.39	91.0387
517.51	90.5736
517.64	91.2898
517.77	91.3443
517.90	90.8937
518.02	91.4908
518.15	91.8043
518.28	91.5299
518.41	91.7492
518.54	91.9361
518.66	91.4644
518.79	91.5977
518.92	91.8292
519.05	91.2740
519.18	91.0356
519.30	91.2087
519.43	91.1037
519.56	90.5323
519.69	90.9891
519.81	91.3930
519.94	91.2160
520.07	91.1505
520.20	91.2453
520.33	91.5560
520.45	91.2315
520.58	90.9910
520.71	91.1413
520.84	91.5731
520.96	91.5804
521.09	91.3128
521.22	91.3835
521.35	91.7050
521.48	91.9208
521.60	91.2881
521.73	90.6901
521.86	90.8616
521.99	90.5950
522.11	90.2480
522.24	90.3402
522.37	91.0296
522.50	91.4133
522.62	91.2363
522.75	91.4399
522.88	91.8956
523.01	91.8662
523.14	91.2471
523.26	91.7450
523.39	91.2274
523.52	91.3046
523.65	91.2826
523.77	91.6063
523.90	91.4261
524.03	92.1946
524.16	91.9845
524.28	92.0734
524.41	92.5210
524.54	92.3001
524.67	91.8131
524.79	91.5054
524.92	91.9287
525.05	91.5235
525.18	91.7819
525.31	91.2046
525.43	91.3258
525.56	91.6358
525.69	91.3645
525.82	91.0238
525.94	91.6816
526.07	91.9524
526.20	91.0935
526.33	91.1547
526.45	91.6338
526.58	91.7097
526.71	91.4590
526.84	91.7271
526.96	91.6110
527.09	91.1237
527.22	91.2963
527.35	91.3242
527.47	91.4926
527.60	91.6264
527.73	91.7494
527.86	91.4133
527.98	91.5785
528.11	91.3987
528.24	91.7061
528.37	91.5194
528.49	91.5657
528.62	91.6341
528.75	91.6192
528.88	91.0701
529.00	91.6822
529.13	91.9834
529.26	91.4047
529.39	91.2887
529.51	91.8057
529.64	91.5331
529.77	91.1363
529.90	91.5761
530.02	91.9998
530.15	91.9790
530.28	92.0307
530.40	92.3251
530.53	92.5291
530.66	92.4612
530.79	92.4542
530.91	92.1665
531.04	92.0099
531.17	91.8487
531.30	91.7781
531.42	91.3020
531.55	91.7438
531.68	91.8602
531.81	91.5825
531.93	91.8263
532.06	92.2813
532.19	92.0676
532.31	91.8528
532.44	92.0877
532.57	91.7067
532.70	91.6658
532.82	91.3880
532.95	91.3352
533.08	91.5496
533.21	91.7081
533.33	91.6639
533.46	91.4538
533.59	91.8585
533.71	91.8911
533.84	91.9657
533.97	92.0033
534.10	92.4889
534.22	92.2806
534.35	91.8365
534.48	91.9822
534.61	92.0942
534.73	92.0964
534.86	91.6918
534.99	91.8556
535.11	91.8211
535.24	91.9301
535.37	91.8611
535.50	92.0896
535.62	92.3718
535.75	92.2726
535.88	91.9528
536.00	91.9875
536.13	92.2760
536.26	92.3712
536.39	91.9881
536.51	92.1639
536.64	92.3608
536.77	92.2337
536.89	91.7701
537.02	91.9692
537.15	92.1692
537.28	92.0256
537.40	91.8381
537.53	91.7063
537.66	91.8315
537.78	91.8910
537.91	91.9537
538.04	92.4931
538.17	92.5505
538.29	92.1816
538.42	91.9287
538.55	92.0184
538.67	91.6899
538.80	92.0062
538.93	91.8750
539.05	91.8555
539.18	91.7641
539.31	92.1750
539.44	92.1217
539.56	92.5446
539.69	92.5891
539.82	92.5689
539.94	91.8299
540.07	91.7708
540.20	91.9508
540.32	91.9911
540.45	91.6677
540.58	92.2245
540.71	92.3404
540.83	92.1457
540.96	91.8645
541.09	91.7815
541.21	91.8680
541.34	92.0171
541.47	91.5183
541.59	91.2858
541.72	91.7798
541.85	91.7207
541.98	91.5600
542.10	91.8163
542.23	92.5682
542.36	92.4330
542.48	92.4401
542.61	92.3634
542.74	92.4603
542.86	92.4148
542.99	92.2599
543.12	92.2780
543.24	92.2817
543.37	92.4020
543.50	92.0323
543.62	92.2123
543.75	92.1427
543.88	92.2892
544.01	92.0232
544.13	92.2243
544.26	92.1491
544.39	91.9928
544.51	91.8107
544.64	92.2782
544.77	92.2026
544.89	92.3773
545.02	92.2951
545.15	92.4026
545.27	92.3711
545.40	92.1842
545.53	92.2389
545.65	92.2978
545.78	92.2983
545.91	92.0066
546.03	92.2765
546.16	92.2522
546.29	92.4283
546.41	92.6794
546.54	92.8058
546.67	92.4639
546.79	92.4970
546.92	92.3799
547.05	91.9460
547.17	91.8189
547.30	92.1979
547.43	91.7900
547.56	91.7609
547.68	91.7326
547.81	91.8945
547.94	91.9102
548.06	92.1835
548.19	92.4069
548.32	92.6910
548.44	92.7127
548.57	92.4632
548.70	92.6784
548.82	92.7328
548.95	92.8284
549.08	92.5661
549.20	92.5238
549.33	92.4676
549.45	92.4141
549.58	92.0610
549.71	92.4234
549.83	92.4327
549.96	92.3256
550.09	92.0241
550.21	92.4474
550.34	92.2688
550.47	92.6601
550.59	92.4026
550.72	92.3746
550.85	92.4320
550.97	92.5955
551.10	91.9425
551.23	92.0233
551.35	92.4044
551.48	92.0867
551.61	91.8626
551.73	92.0800
551.86	92.3643
551.99	92.2934
552.11	92.1851
552.24	92.2970
552.37	92.2331
552.49	92.0582
552.62	91.9704
552.75	92.3148
552.87	92.4130
553.00	92.8769
553.12	92.8764
553.25	92.5249
553.38	92.4111
553.50	92.5515
553.63	92.3317
553.76	92.2864
553.88	92.6660
554.01	92.6234
554.14	92.1087
554.26	92.1307
554.39	92.3760
554.52	92.3296
554.64	92.0624
554.77	92.2012
554.89	92.1740
555.02	92.2124
555.15	92.3007
555.27	92.1779
555.40	92.2739
555.53	92.4553
555.65	92.2657
555.78	91.9095
555.91	92.4462
556.03	92.6953
556.16	92.2322
556.29	91.8830
556.41	92.3821
556.54	92.2789
556.66	91.7102
556.79	92.0388
556.92	92.4379
557.04	92.3584
557.17	92.2384
557.30	92.6370
557.42	92.6166
557.55	92.5747
557.67	92.3058
557.80	92.1675
557.93	92.4509
558.05	92.5428
558.18	92.3103
558.31	92.3731
558.43	92.5700
558.56	92.5560
558.68	92.4528
558.81	92.2220
558.94	92.3783
559.06	92.4633
559.19	92.4519
559.32	92.4013
559.44	92.6726
559.57	92.5059
559.69	92.3315
559.82	92.0775
559.95	92.4140
560.07	92.6272
560.20	92.4696
560.33	92.6563
560.45	92.6249
560.58	92.5083
560.70	92.4572
560.83	92.5681
560.96	92.2817
561.08	92.1566
561.21	92.2816
561.33	92.0983
561.46	92.2585
561.59	92.4929
561.71	92.6943
561.84	92.2012
561.97	92.3339
562.09	92.4288
562.22	92.3126
562.34	92.4248
562.47	92.8775
562.60	93.0184
562.72	92.8758
562.85	93.0446
562.97	93.0798
563.10	92.9307
563.23	92.8511
563.35	92.8765
563.48	92.8357
563.60	92.8569
563.73	92.8012
563.86	92.6859
563.98	92.7258
564.11	92.6024
564.23	92.7842
564.36	92.6853
564.49	92.7707
564.61	92.8604
564.74	92.9064
564.86	92.2849
564.99	92.2066
565.12	92.4735
565.24	92.4319
565.37	92.3718
565.49	92.7448
565.62	93.2697
565.75	92.6267
565.87	92.3592
566.00	92.7903
566.12	92.6875
566.25	92.4682
566.38	92.7856
566.50	93.0104
566.63	92.7473
566.75	92.9586
566.88	92.9399
567.01	93.2066
567.13	93.3481
567.26	93.0499
567.38	92.9259
567.51	92.7798
567.64	92.4309
567.76	92.2065
567.89	92.3932
568.01	92.0585
568.14	92.1287
568.26	92.2822
568.39	91.9956
568.52	92.0662
568.64	92.5652
568.77	92.4349
568.89	92.4691
569.02	92.8979
569.15	92.8783
569.27	92.6631
569.40	92.8365
569.52	93.0733
569.65	93.0764
569.77	93.2999
569.90	92.9707
570.03	92.8376
570.15	92.6375
570.28	92.5045
570.40	92.1576
570.53	92.2514
570.66	92.5534
570.78	92.7801
570.91	92.8431
571.03	92.8637
571.16	93.3776
571.28	93.1305
571.41	92.9508
571.54	92.8122
571.66	92.9930
571.79	92.7980
571.91	92.5134
572.04	92.1429
572.16	92.2396
572.29	92.0131
572.42	91.7714
572.54	91.9504
572.67	92.3271
572.79	92.2405
572.92	92.4164
573.04	92.8369
573.17	93.1171
573.29	93.0182
573.42	93.1107
573.55	93.4055
573.67	93.2393
573.80	93.0596
573.92	92.9831
574.05	93.0777
574.17	92.8421
574.30	92.7811
574.43	92.6322
574.55	92.6682
574.68	92.6236
574.80	92.6462
574.93	92.4838
575.05	92.7458
575.18	92.9883
575.30	92.7878
575.43	92.7285
575.56	92.9361
575.68	93.0780
575.81	92.8263
575.93	93.0144
576.06	93.1127
576.18	93.2359
576.31	92.6823
576.43	92.5995
576.56	92.5975
576.69	92.8334
576.81	92.6290
576.94	92.8784
577.06	93.2381
577.19	93.3011
577.31	92.9161
577.44	92.9510
577.56	93.0521
577.69	92.9828
577.82	93.0707
577.94	92.9742
578.07	93.0116
578.19	93.0483
578.32	92.7606
578.44	92.4362
578.57	92.7575
578.69	92.8076
578.82	92.6167
578.94	92.5203
579.07	92.7891
579.19	92.5250
579.32	92.5115
579.45	92.6634
579.57	92.8768
579.70	92.7324
579.82	92.4476
579.95	92.4086
580.07	92.3348
580.20	92.5341
580.32	92.5639
580.45	93.1470
580.57	93.0178
580.70	92.8177
580.82	92.9024
580.95	92.7171
581.08	92.5342
581.20	92.5690
581.33	92.8555
581.45	92.4554
581.58	92.9039
581.70	92.8635
581.83	92.8256
581.95	92.6574
582.08	92.8133
582.20	92.8659
582.33	92.9473
582.45	93.0078
582.58	93.1846
582.70	93.4062
582.83	93.0536
582.95	93.0739
583.08	93.1317
583.21	93.2422
583.33	93.2047
583.46	93.2325
583.58	93.2770
583.71	93.3979
583.83	93.1494
583.96	93.0020
584.08	93.1605
584.21	93.1208
584.33	93.2915
584.46	93.5175
584.58	93.3937
584.71	93.6698
584.83	93.6957
584.96	93.1140
585.08	92.9777
585.21	93.1977
585.33	92.7858
585.46	92.7546
585.58	93.0407
585.71	92.9462
585.83	93.0438
585.96	93.0504
586.08	93.0368
586.21	93.3722
586.33	93.3811
586.46	93.1505
586.59	93.1683
586.71	93.2214
586.84	93.2237
586.96	93.4235
587.09	93.2474
587.21	93.1248
587.34	92.9223
587.46	92.2922
587.59	92.0894
587.71	92.3570
587.84	92.4025
587.96	92.2114
588.09	92.3818
588.21	92.5273
588.34	92.5692
588.46	92.5399
588.59	93.0307
588.71	93.3154
588.84	93.0387
588.96	92.7129
589.09	93.0904
589.21	92.7856
589.34	92.4572
589.46	92.5351
589.59	92.8431
589.71	92.8259
589.84	92.9172
589.96	92.9128
590.09	92.9664
590.21	92.8441
590.34	92.7494
590.46	92.9462
590.59	92.8938
590.71	92.9751
590.84	93.0505
590.96	92.8428
591.09	92.6655
591.21	93.1450
591.34	93.0348
591.46	92.8962
591.59	92.9961
591.71	93.3097
591.83	92.9883
591.96	92.8683
592.08	92.8142
592.21	92.7695
592.33	92.6086
592.46	92.5060
592.58	92.6571
592.71	92.8975
592.83	92.7875
592.96	92.6492
593.08	92.8723
593.21	92.8822
593.33	92.7990
593.46	92.7488
593.58	92.6962
593.71	92.9682
593.83	92.6676
593.96	92.5739
594.08	92.9093
594.21	93.0757
594.33	92.7771
594.46	93.4228
594.58	93.6104
594.71	93.6687
594.83	93.3860
594.96	93.4609
595.08	93.4089
595.20	93.5202
595.33	92.9606
595.45	92.9594
595.58	92.9410
595.70	92.7692
595.83	92.5607
595.95	92.9115
596.08	93.1850
596.20	93.1342
596.33	93.2647
596.45	93.2765
596.58	93.1606
596.70	93.0738
596.83	92.8857
596.95	92.7732
597.08	92.7425
597.20	92.7484
597.32	92.6559
597.45	92.6295
597.57	92.8311
597.70	92.9107
597.82	93.2065
597.95	93.2926
598.07	93.4956
598.20	93.3780
598.32	93.3780
598.45	93.0740
598.57	93.0723
598.70	93.0356
598.82	92.7951
598.94	92.6891
599.07	92.9138
599.19	93.4071
599.32	93.2777
599.44	93.2790
599.57	93.3862
599.69	93.3956
599.82	92.7222
599.94	92.8826
600.07	93.0198
600.19	92.9600
600.31	92.3858
600.44	92.3626
600.56	92.4376
600.69	92.6742
600.81	92.6958
600.94	93.2229
601.06	93.3633
601.19	93.4634
601.31	93.0997
601.44	93.0151
601.56	92.9660
601.68	93.1887
601.81	92.7684
601.93	92.9962
602.06	93.2151
602.18	92.8252
602.31	92.3205
602.43	92.4410
602.56	92.4450
602.68	92.4192
602.80	92.9737
602.93	93.2467
603.05	93.4353
603.18	93.5314
603.30	93.5348
603.43	93.2169
603.55	93.2250
603.68	93.1423
603.80	93.0244
603.92	92.8327
604.05	93.0026
604.17	93.1492
604.30	93.0676
604.42	92.9546
604.55	93.0739
604.67	93.0245
604.79	92.9601
604.92	93.1758
605.04	93.2153
605.17	93.2524
605.29	92.9576
605.42	92.9002
605.54	92.5282
605.66	92.5411
605.79	92.4902
605.91	92.8677
606.04	92.6304
606.16	92.7206
606.29	92.6037
606.41	92.7491
606.53	92.6328
606.66	92.9964
606.78	93.1183
606.91	93.3444
607.03	93.3340
607.16	93.2829
607.28	93.1121
607.40	93.3197
607.53	93.4619
607.65	93.2793
607.78	92.9743
607.90	92.9457
608.03	92.8052
608.15	92.5077
608.27	92.5514
608.40	92.8256
608.52	92.9487
608.65	93.0835
608.77	92.9415
608.89	92.8335
609.02	92.9391
609.14	92.6645
609.27	92.5262
609.39	93.0094
609.52	92.9782
609.64	92.9655
609.76	93.0862
609.89	92.7475
610.01	92.3503
610.14	92.5554
610.26	92.4951
610.38	92.5994
610.51	92.9873
610.63	93.0644
610.76	92.7959
610.88	92.5722
611.01	92.5365
611.13	92.5585
611.25	92.4175
611.38	92.5327
611.50	92.9317
611.63	92.9484
611.75	92.8463
611.87	92.8510
612.00	92.8728
612.12	92.9453
612.25	92.9406
612.37	92.9128
612.49	92.8772
612.62	92.9692
612.74	92.6845
612.87	92.7274
612.99	92.7748
613.11	93.0281
613.24	93.0845
613.36	93.0537
613.49	93.1745
613.61	92.8879
613.73	92.5521
613.86	92.4102
613.98	92.7680
614.11	93.0005
614.23	93.3054
614.35	93.7222
614.48	93.9536
614.60	93.7006
614.72	93.4023
614.85	93.5625
614.97	93.6113
615.10	93.3742
615.22	93.1611
615.34	93.3263
615.47	93.2069
615.59	92.9147
615.72	93.2205
615.84	93.1524
615.96	93.1610
616.09	93.1087
616.21	93.1221
616.34	92.9736
616.46	93.3164
616.58	93.2797
616.71	93.1689
616.83	93.1027
616.95	93.1470
617.08	93.2302
617.20	93.0197
617.33	93.1195
617.45	93.3823
617.57	93.4400
617.70	93.2870
617.82	93.0771
617.95	93.0279
618.07	92.9607
618.19	92.6654
618.32	92.6198
618.44	92.8232
618.56	92.9683
618.69	92.7585
618.81	92.8160
618.94	92.9398
619.06	93.0065
619.18	92.9259
619.31	93.0098
619.43	92.9783
619.55	93.1465
619.68	93.3333
619.80	92.9421
619.92	92.9073
620.05	93.2558
620.17	93.0179
620.30	92.6663
620.42	93.0247
620.54	93.0920
620.67	92.7705
620.79	92.6642
620.91	92.7705
621.04	92.8933
621.16	93.2239
621.29	93.3101
621.41	93.5487
621.53	93.8059
621.66	93.5218
621.78	92.8311
621.90	92.9140
622.03	92.8613
622.15	92.4936
622.27	92.6316
622.40	92.9047
622.52	92.8060
622.64	92.7289
622.77	92.7050
622.89	92.7587
623.02	92.9208
623.14	92.9062
623.26	92.8857
623.39	93.1720
623.51	93.4218
623.63	93.1539
623.76	93.1102
623.88	93.5039
624.00	93.4704
624.13	93.2640
624.25	93.2840
624.37	93.1942
624.50	93.0530
624.62	93.1611
624.75	92.8061
624.87	93.1411
624.99	93.4091
625.12	92.7943
625.24	92.4655
625.36	92.9495
625.49	92.8813
625.61	92.4591
625.73	92.9522
625.86	93.2445
625.98	93.1410
626.10	92.8182
626.23	93.1854
626.35	93.2299
626.47	93.2877
626.60	92.8981
626.72	93.0312
626.84	93.0958
626.97	93.0265
627.09	92.6209
627.21	92.5839
627.34	93.0119
627.46	92.8980
627.58	92.5653
627.71	92.9735
627.83	93.3409
627.95	92.7636
628.08	92.6553
628.20	92.9750
628.32	92.7819
628.45	92.7389
628.57	92.7960
628.69	92.5978
628.82	92.6829
628.94	92.6491
629.06	92.4283
629.19	92.8846
629.31	93.0215
629.43	92.9365
629.56	92.9723
629.68	93.1290
629.80	92.9380
629.93	93.1456
630.05	93.1216
630.17	93.1370
630.30	93.1066
630.42	93.2213
630.54	93.2183
630.67	92.9655
630.79	93.1024
630.91	93.1427
631.04	92.9674
631.16	92.8898
631.28	93.2152
631.41	92.9420
631.53	93.0536
631.65	93.1064
631.78	93.1236
631.90	93.2083
632.02	93.1595
632.14	93.0671
632.27	93.1755
632.39	92.9079
632.51	92.6655
632.64	92.9992
632.76	92.9533
632.88	93.0008
633.01	93.2602
633.13	92.6813
633.25	92.5086
633.38	92.5184
633.50	92.3153
633.62	92.3819
633.75	92.8023
633.87	92.9463
633.99	92.9037
634.11	92.6675
634.24	92.5892
634.36	92.8242
634.48	92.3295
634.61	92.3632
634.73	92.6381
634.85	92.5346
634.98	92.3546
635.10	92.3438
635.22	92.5011
635.35	92.5969
635.47	92.6463
635.59	92.5538
635.71	92.8940
635.84	92.6105
635.96	92.5130
636.08	92.4182
636.21	92.5818
636.33	92.7143
636.45	92.9609
636.58	92.6308
636.70	92.9231
636.82	93.3827
636.94	93.0100
637.07	92.8514
637.19	93.1673
637.31	93.3805
637.44	92.8301
637.56	93.0538
637.68	93.2226
637.81	93.3152
637.93	92.8462
638.05	92.7448
638.17	92.9334
638.30	93.0796
638.42	92.9645
638.54	92.9237
638.67	93.4886
638.79	93.3219
638.91	93.0705
639.03	92.9311
639.16	93.2036
639.28	92.9589
639.40	92.7330
639.53	92.8096
639.65	92.9470
639.77	92.8550
639.89	92.6154
640.02	92.9097
640.14	92.7660
640.26	92.7542
640.39	92.6595
640.51	92.5246
640.63	92.3998
640.75	92.3876
640.88	92.3238
641.00	91.9637
641.12	92.4680
641.24	92.7363
641.37	92.4996
641.49	92.6817
641.61	93.0604
641.74	92.9999
641.86	92.5669
641.98	92.7581
642.10	92.7830
642.23	92.8156
642.35	92.5258
642.47	92.6591
642.60	92.9003
642.72	92.7733
642.84	92.6691
642.96	92.8406
643.09	93.1542
643.21	93.2815
643.33	93.2522
643.45	93.0928
643.58	93.2015
643.70	93.0739
643.82	92.9042
643.94	92.9597
644.07	93.2970
644.19	93.2921
644.31	92.8951
644.44	92.7660
644.56	92.7593
644.68	92.8943
644.80	92.7028
644.93	92.9238
645.05	93.0297
645.17	92.9492
645.29	92.9222
645.42	92.7720
645.54	92.6373
645.66	92.6419
645.78	92.6406
645.91	92.2416
646.03	92.6965
646.15	93.0315
646.27	93.0055
646.40	92.9841
646.52	93.2648
646.64	93.1105
646.76	92.9118
646.89	92.8320
647.01	92.7722
647.13	92.8228
647.25	92.7400
647.38	92.5401
647.50	92.8524
647.62	93.0721
647.74	92.8739
647.87	92.9002
647.99	93.4881
648.11	93.4143
648.23	93.3627
648.36	93.4370
648.48	93.3043
648.60	93.2080
648.72	92.7230
648.85	92.5286
648.97	92.6841
649.09	92.7657
649.21	92.3553
649.34	92.5041
649.46	92.4750
649.58	92.3430
649.70	92.4100
649.83	92.5109
649.95	92.7248
650.07	92.8695
650.19	92.5036
650.32	92.3477
650.44	92.5187
650.56	92.4860
650.68	92.3626
650.81	92.5224
650.93	92.7644
651.05	92.7916
651.17	92.7487
651.29	92.8045
651.42	93.0528
651.54	92.9394
651.66	92.7938
651.78	92.5441
651.91	92.7891
652.03	92.8344
652.15	92.8019
652.27	92.8788
652.40	93.4570
652.52	93.3824
652.64	92.9305
652.76	92.8686
652.88	92.9295
653.01	92.7741
653.13	92.5605
653.25	92.7760
653.37	92.9389
653.50	93.1910
653.62	92.8195
653.74	92.6912
653.86	92.9603
653.98	93.0113
654.11	92.7914
654.23	92.7158
654.35	93.0599
654.47	93.0997
654.60	92.8102
654.72	92.3180
654.84	92.6205
654.96	92.3857
655.08	92.2765
655.21	92.2660
655.33	92.5691
655.45	92.6253
655.57	92.8210
655.70	92.3299
655.82	92.3871
655.94	92.7052
656.06	92.4544
656.18	92.3279
656.31	92.9942
656.43	93.3851
656.55	93.1879
656.67	93.2122
656.79	93.4236
656.92	93.5168
657.04	93.0109
657.16	92.7945
657.28	92.9880
657.40	93.0829
657.53	92.6889
657.65	92.7593
657.77	93.0545
657.89	93.1439
658.01	92.7536
658.14	92.6922
658.26	93.2980
658.38	93.4054
658.50	93.1154
658.62	93.2788
658.75	93.3370
658.87	93.0570
658.99	92.7374
659.11	92.5067
659.23	92.4835
659.36	92.6168
659.48	92.5805
659.60	92.5113
659.72	93.0740
659.84	93.1574
659.97	92.6698
660.09	92.2439
660.21	92.4086
660.33	92.2958
660.45	92.1835
660.58	92.4220
660.70	92.8471
660.82	92.8217
660.94	92.6378
661.06	92.6721
661.19	93.0416
661.31	92.9375
661.43	92.9065
661.55	92.8695
661.67	92.9622
661.80	92.6694
661.92	92.9491
662.04	92.9880
662.16	93.1361
662.28	93.2207
662.40	93.1747
662.53	92.8957
662.65	92.7795
662.77	92.8966
662.89	92.8240
663.01	92.6840
663.14	92.5361
663.26	92.7477
663.38	92.6505
663.50	92.6770
663.62	92.8869
663.74	92.8968
663.87	92.7295
663.99	92.3649
664.11	92.3734
664.23	92.5407
664.35	92.6686
664.48	92.5912
664.60	93.1721
664.72	93.2012
664.84	92.7926
664.96	92.8325
665.08	92.9861
665.21	92.8784
665.33	92.6737
665.45	92.8366
665.57	92.5911
665.69	92.7971
665.81	92.7396
665.94	92.5658
666.06	92.6344
666.18	92.8421
666.30	92.4127
666.42	92.2277
666.54	92.3355
666.67	92.2153
666.79	92.1467
666.91	92.4181
667.03	92.5761
667.15	92.8717
667.27	93.0112
667.40	92.8958
667.52	92.8638
667.64	93.0310
667.76	92.7166
667.88	92.6253
668.00	93.1328
668.13	93.3739
668.25	93.0671
668.37	93.0595
668.49	93.3295
668.61	93.0637
668.73	92.7487
668.85	92.9352
668.98	93.3046
669.10	93.3485
669.22	93.1219
669.34	93.3741
669.46	93.3906
669.58	93.3065
669.71	93.1773
669.83	93.2027
669.95	92.8585
670.07	92.6663
670.19	92.6171
670.31	92.5094
670.43	92.4603
670.56	92.7540
670.68	92.8186
670.80	92.4391
670.92	92.5533
671.04	92.9671
671.16	93.0263
671.28	92.9485
671.41	93.4691
671.53	93.8054
671.65	93.2199
671.77	92.6424
671.89	92.8193
672.01	92.7514
672.13	92.3288
672.26	92.9774
672.38	93.4316
672.50	93.3754
672.62	93.2659
672.74	93.3461
672.86	93.0686
672.98	93.0949
673.11	92.9349
673.23	92.9469
673.35	92.9172
673.47	93.0379
673.59	92.8413
673.71	92.4644
673.83	92.5182
673.96	92.6320
674.08	92.4596
674.20	92.3211
674.32	92.9040
674.44	92.8721
674.56	92.6744
674.68	92.7253
674.80	92.9123
674.93	92.8777
675.05	92.5610
675.17	92.3758
675.29	92.2945
675.41	92.4594
675.53	92.3703
675.65	92.3583
675.77	92.6284
675.90	92.9570
676.02	92.6261
676.14	92.3804
676.26	92.8726
676.38	92.9396
676.50	92.9398
676.62	93.1801
676.74	93.4194
676.87	93.0713
676.99	92.9348
677.11	92.3832
677.23	92.1547
677.35	92.3405
677.47	92.3968
677.59	92.2093
677.71	92.6038
677.83	92.6830
677.96	92.4161
678.08	92.5859
678.20	92.9155
678.32	92.9014
678.44	92.6223
678.56	92.5725
678.68	92.5466
678.80	92.3915
678.93	92.1336
679.05	92.4382
679.17	92.8822
679.29	92.9026
679.41	93.0231
679.53	93.0948
679.65	93.4060
679.77	92.9668
679.89	92.4922
680.01	92.8398
680.14	93.0614
680.26	92.8926
680.38	92.7703
680.50	93.1160
680.62	92.8767
680.74	92.9117
680.86	92.7421
680.98	92.5148
681.10	92.4940
681.22	92.2297
681.35	92.2854
681.47	91.8259
681.59	92.4693
681.71	92.9232
681.83	92.9394
681.95	92.7192
682.07	93.2715
682.19	93.3583
682.31	92.8061
682.43	92.8797
682.56	92.8744
682.68	92.8295
682.80	92.4188
682.92	92.5728
683.04	92.6578
683.16	92.5339
683.28	92.6034
683.40	92.6485
683.52	92.5591
683.64	92.6472
683.76	92.7338
683.89	92.6015
684.01	92.8911
684.13	93.1309
684.25	92.9477
684.37	92.8961
684.49	93.0348
684.61	93.0455
684.73	92.7808
684.85	92.4739
684.97	92.6078
685.09	92.6746
685.21	91.9074
685.34	91.8995
685.46	92.2097
685.58	91.8762
685.70	91.6885
685.82	92.2995
685.94	92.4478
686.06	92.4468
686.18	92.8201
686.30	92.7566
686.42	93.0026
686.54	92.7321
686.66	92.7152
686.79	92.3421
686.91	92.6585
687.03	92.7308
687.15	93.1579
687.27	93.1237
687.39	93.4497
687.51	93.3436
687.63	93.0156
687.75	92.4323
687.87	92.7220
687.99	92.6784
688.11	92.6384
688.23	92.5050
688.35	92.9361
688.48	92.9768
688.60	93.0229
688.72	93.0847
688.84	93.4708
688.96	93.5260
689.08	92.9413
689.20	92.8924
689.32	92.9597
689.44	92.8450
689.56	92.7423
689.68	93.4258
689.80	93.5332
689.92	93.2912
690.04	92.9569
690.16	92.6943
690.28	92.7052
690.41	92.5354
690.53	92.4023
690.65	92.4351
690.77	92.8704
690.89	92.5409
691.01	92.4794
691.13	92.6052
691.25	92.9834
691.37	92.9590
691.49	92.7286
691.61	92.8598
691.73	93.2903
691.85	93.3838
691.97	93.2159
692.09	93.2801
692.21	93.3132
692.33	93.1311
692.45	92.8203
692.57	92.7347
692.70	93.2362
692.82	93.2988
692.94	93.0492
693.06	93.4000
693.18	93.7531
693.30	93.4016
693.42	93.2591
693.54	93.2379
693.66	93.1945
693.78	92.7312
693.90	92.8122
694.02	93.0095
694.14	93.2503
694.26	93.0563
694.38	93.1019
694.50	93.0129
694.62	93.0008
694.74	92.9016
694.86	92.5762
694.98	92.4846
695.10	92.5775
695.22	92.6836
695.34	92.8928
695.46	93.1325
695.58	93.5434
695.71	93.6020
695.83	93.0986
695.95	93.0809
696.07	93.4312
696.19	93.6383
696.31	93.2036
696.43	93.3893
696.55	93.3195
696.67	92.9881
696.79	92.9239
696.91	92.8024
697.03	92.8414
697.15	92.7519
697.27	92.4293
697.39	92.2950
697.51	92.8381
697.63	92.7569
697.75	92.5907
697.87	92.9194
697.99	92.7153
698.11	92.7053
698.23	92.8429
698.35	93.0356
698.47	93.2523
698.59	93.3613
698.71	93.3395
698.83	93.5024
698.95	93.6237
699.07	93.4324
699.19	93.5249
699.31	93.1091
699.43	92.9510
699.55	92.8694
699.67	92.8235
699.79	92.6329
699.91	92.8839
700.03	92.9915
700.15	92.7851
700.27	92.9565
700.39	93.0742
700.51	93.1714
700.63	93.0547
700.75	93.3274
700.87	93.1539
700.99	93.0999
701.11	92.9257
701.24	92.7260
701.36	92.4486
701.48	92.8509
701.60	92.6290
701.72	92.8242
701.84	93.0272
701.96	93.0843
702.08	92.6727
702.20	92.7578
702.32	92.9918
702.44	93.1709
702.56	93.2954
702.68	92.9550
702.80	93.3638
702.92	93.3271
703.04	93.0548
703.16	93.1426
703.28	93.4141
703.40	93.0692
703.52	92.7725
703.64	92.8468
703.76	92.9081
703.88	93.2422
704.00	93.1400
704.12	93.1484
704.24	93.2847
704.36	93.3131
704.48	93.0999
704.60	93.3187
704.72	93.1617
704.84	93.0033
704.96	93.1209
705.07	92.9166
705.19	92.6791
705.31	92.8343
705.43	92.7569
705.55	92.3175
705.67	92.8440
705.79	93.0397
705.91	93.0141
706.03	93.1852
706.15	93.6018
706.27	93.3413
706.39	93.3980
706.51	93.4258
706.63	93.4550
706.75	92.8208
706.87	92.6494
706.99	92.8285
707.11	92.7673
707.23	92.7647
707.35	93.0097
707.47	92.9451
707.59	92.9715
707.71	93.2246
707.83	93.3155
707.95	93.0133
708.07	93.2197
708.19	93.3010
708.31	93.2688
708.43	93.0966
708.55	93.7343
708.67	93.6745
708.79	93.2593
708.91	92.9452
709.03	93.2050
709.15	93.0433
709.27	93.1654
709.39	93.0663
709.51	93.1215
709.63	93.1945
709.75	92.9571
709.87	92.8870
709.99	93.3378
710.11	93.8558
710.23	93.1542
710.35	93.2198
710.47	93.4181
710.58	93.1596
710.70	92.7956
710.82	93.2093
710.94	93.5114
711.06	93.5946
711.18	93.4051
711.30	93.0686
711.42	92.9345
711.54	92.9271
711.66	92.3998
711.78	92.4101
711.90	92.6423
712.02	93.0410
712.14	92.6292
712.26	92.8250
712.38	93.0429
712.50	93.3220
712.62	92.8780
712.74	92.7338
712.86	92.7700
712.98	92.7412
713.10	92.3406
713.22	92.5486
713.34	92.7739
713.45	92.9602
713.57	92.9036
713.69	92.9349
713.81	92.8448
713.93	93.5111
714.05	93.0596
714.17	92.6480
714.29	93.1273
714.41	93.0823
714.53	92.5349
714.65	92.8773
714.77	93.0338
714.89	92.7550
715.01	92.7539
715.13	92.9508
715.25	93.2077
715.37	93.4404
715.49	93.2763
715.61	93.0655
715.72	92.9915
715.84	92.6128
715.96	92.4981
716.08	92.5516
716.20	92.9975
716.32	93.1949
716.44	93.4130
716.56	93.3645
716.68	93.4775
716.80	93.3485
716.92	92.7603
717.04	92.7124
717.16	93.0325
717.28	92.9689
717.40	92.9656
717.52	93.1059
717.63	92.9479
717.75	92.9229
717.87	92.9706
717.99	92.4935
718.11	92.5735
718.23	92.6688
718.35	92.7750
718.47	92.7917
718.59	93.3076
718.71	93.2418
718.83	93.2555
718.95	92.9220
719.07	92.8240
719.19	92.7140
719.30	92.8702
719.42	92.6888
719.54	92.8222
719.66	93.2185
719.78	93.0085
719.90	92.8511
720.02	92.7288
720.14	92.6096
720.26	92.4761
720.38	92.9788
720.50	93.2471
720.62	93.5767
720.74	93.5173
720.85	93.3741
720.97	93.3796
721.09	93.3539
721.21	93.3646
721.33	93.5841
721.45	93.4770
721.57	93.5657
721.69	92.9926
721.81	92.8278
721.93	93.1797
722.05	93.6953
722.16	93.2459
722.28	93.4726
722.40	93.1819
722.52	93.1645
722.64	92.6230
722.76	92.5378
722.88	92.8908
723.00	93.2447
723.12	93.1204
723.24	93.1125
723.36	93.0516
723.47	93.1454
723.59	93.2500
723.71	93.2426
723.83	93.3820
723.95	93.5609
724.07	93.0492
724.19	92.7765
724.31	93.0282
724.43	93.2252
724.55	92.5946
724.66	92.9475
724.78	93.3188
724.90	92.9035
725.02	92.5970
725.14	93.6473
725.26	93.4275
725.38	93.1737
725.50	93.1811
725.62	93.2884
725.74	93.2988
725.85	93.3893
725.97	92.3116
726.09	92.3036
726.21	92.5303
726.33	92.1598
726.45	91.9369
726.57	93.2316
726.69	93.2451
726.81	92.8161
726.92	92.6343
727.04	93.0805
727.16	93.0731
727.28	93.1935
727.40	92.8641
727.52	92.5603
727.64	92.4465
727.76	92.6429
727.88	92.3967
727.99	92.9852
728.11	93.3969
728.23	93.5262
728.35	93.2092
728.47	93.2147
728.59	93.1615
728.71	93.2968
728.83	92.8431
728.94	92.7835
729.06	92.7636
729.18	93.0117
729.30	92.7467
729.42	92.8366
729.54	93.1458
729.66	93.1486
729.78	92.8520
729.90	93.3884
730.01	93.5296
730.13	93.2287
730.25	92.9339
730.37	92.9741
730.49	92.6464
730.61	92.7594
730.73	92.8236
730.84	93.2531
730.96	93.3538
731.08	93.6837
731.20	92.8786
731.32	92.8867
731.44	93.0284
731.56	92.7301
731.68	92.2846
731.79	92.8185
731.91	92.5584
732.03	92.4722
732.15	92.6356
732.27	92.6415
732.39	92.9149
732.51	93.2245
732.62	92.7762
732.74	92.7175
732.86	93.0297
732.98	93.1053
733.10	92.6349
733.22	93.1959
733.34	93.1074
733.45	93.1802
733.57	93.0495
733.69	93.1871
733.81	93.1233
733.93	93.4471
734.05	92.9444
734.17	92.8216
734.28	93.0463
734.40	92.8497
734.52	92.2849
734.64	92.2655
734.76	92.5246
734.88	92.5070
735.00	92.1136
735.11	92.5614
735.23	93.0356
735.35	92.8110
735.47	92.9598
735.59	93.4773
735.71	93.6074
735.83	93.8277
735.94	94.0360
736.06	93.7133
736.18	93.7665
736.30	93.9850
736.42	93.7901
736.54	93.1901
736.65	93.4698
736.77	93.3749
736.89	92.4365
737.01	92.4924
737.13	93.0015
737.25	92.7534
737.36	92.4446
737.48	93.0211
737.60	92.8229
737.72	92.5564
737.84	92.8596
737.96	92.8918
738.08	93.0690
738.19	92.9815
738.31	93.2954
738.43	93.0487
738.55	93.2053
738.67	93.0061
738.79	92.8971
738.90	92.8658
739.02	92.9393
739.14	93.1097
739.26	92.8584
739.38	93.2108
739.50	93.3617
739.61	93.5350
739.73	93.4132
739.85	93.2511
739.97	93.4134
740.09	92.9834
740.20	92.4644
740.32	92.5380
740.44	92.6826
740.56	92.2441
740.68	92.3041
740.80	92.5238
740.91	92.4867
741.03	92.9163
741.15	92.8689
741.27	93.0312
741.39	93.2590
741.51	93.4327
741.62	93.3146
741.74	93.3620
741.86	93.3896
741.98	93.6472
742.10	93.5784
742.21	93.7008
742.33	93.7978
742.45	93.9133
742.57	93.5083
742.69	93.3338
742.80	93.2738
742.92	93.3253
743.04	92.7961
743.16	92.9024
743.28	93.0842
743.40	93.1929
743.51	93.0431
743.63	93.3742
743.75	93.3253
743.87	93.3737
743.99	93.2869
744.10	93.3353
744.22	93.1898
744.34	93.2852
744.46	93.3411
744.58	93.0940
744.69	93.1758
744.81	93.7820
744.93	93.5373
745.05	93.0153
745.17	93.2287
745.28	93.1550
745.40	92.8576
745.52	92.7316
745.64	92.8871
745.76	92.7331
745.87	92.6315
745.99	92.5269
746.11	92.8055
746.23	93.0132
746.35	92.3522
746.46	92.1404
746.58	92.2223
746.70	91.8578
746.82	91.6857
746.94	92.5205
747.05	92.8558
747.17	92.8954
747.29	92.6335
747.41	93.0756
747.53	92.8676
747.64	92.9404
747.76	92.7591
747.88	93.4112
748.00	93.3431
748.12	93.3396
748.23	92.9461
748.35	92.7771
748.47	92.8391
748.59	92.6147
748.70	92.5817
748.82	92.7479
748.94	92.7349
749.06	92.7600
749.18	92.3279
749.29	92.4164
749.41	92.4442
749.53	92.2558
749.65	92.0655
749.76	92.5102
749.88	92.3254
750.00	92.3880
750.12	92.8532
750.24	93.1709
750.35	92.8793
750.47	93.1512
750.59	92.7069
750.71	92.7076
750.82	92.6848
750.94	93.0041
751.06	92.7979
751.18	93.2054
751.30	93.1843
751.41	93.0594
751.53	93.0793
751.65	93.0144
751.77	92.8292
751.88	92.9565
752.00	92.6520
752.12	92.6072
752.24	92.8984
752.35	93.1237
752.47	92.8316
752.59	93.2058
752.71	93.2335
752.83	93.2239
752.94	92.8995
753.06	92.8274
753.18	92.8786
753.30	92.9390
753.41	92.8419
753.53	93.1070
753.65	93.4974
753.77	93.5305
753.88	93.4592
754.00	93.0173
754.12	93.0014
754.24	93.3360
754.35	93.1230
754.47	92.8611
754.59	93.2356
754.71	93.3116
754.82	92.5740
754.94	92.2399
755.06	92.2665
755.18	92.2936
755.29	92.1276
755.41	92.4519
755.53	92.8335
755.65	93.0611
755.76	92.9316
755.88	92.9981
756.00	93.4227
756.12	93.5278
756.23	92.9848
756.35	93.2805
756.47	93.7627
756.59	93.2792
756.70	93.3675
756.82	93.6902
756.94	93.3350
757.06	93.0785
757.17	93.1839
757.29	92.9790
757.41	93.1974
757.53	93.5440
757.64	93.1291
757.76	92.6336
757.88	92.7673
758.00	92.7658
758.11	92.3889
758.23	92.8403
758.35	93.0518
758.47	93.0472
758.58	92.7754
758.70	93.1081
758.82	92.5035
758.94	92.9681
759.05	92.7410
759.17	92.3784
759.29	92.2752
759.40	92.9148
759.52	92.2675
759.64	91.9706
759.76	92.5388
759.87	92.7643
759.99	92.6399
760.11	92.9870
760.23	93.2332
760.34	93.3141
760.46	93.1224
760.58	92.7924
760.70	92.6281
760.81	92.5552
760.93	92.4589
761.05	92.3679
761.16	92.5867
761.28	92.9722
761.40	92.8170
761.52	92.4857
761.63	92.8017
761.75	93.0130
761.87	92.6988
761.98	92.8941
762.10	93.1087
762.22	93.1829
762.34	92.8221
762.45	92.2165
762.57	92.4584
762.69	92.4662
762.81	92.3627
762.92	92.3972
763.04	93.0698
763.16	93.2266
763.27	93.1140
763.39	92.7271
763.51	92.8699
763.63	92.9438
763.74	92.6391
763.86	92.6467
763.98	92.7741
764.09	92.9180
764.21	92.7704
764.33	92.7747
764.44	92.9327
764.56	92.8399
764.68	92.8359
764.80	92.3110
764.91	91.9942
765.03	91.8488
765.15	92.1844
765.26	91.8940
765.38	92.3675
765.50	92.3394
765.62	92.1203
765.73	91.9560
765.85	91.9797
765.97	91.9711
766.08	92.0603
766.20	92.2811
766.32	91.9105
766.43	92.1667
766.55	92.1077
766.67	92.2210
766.79	92.3813
766.90	92.5639
767.02	92.4728
767.14	91.8981
767.25	92.1813
767.37	92.2564
767.49	91.9365
767.60	91.6591
767.72	92.5688
767.84	92.6051
767.95	92.4072
768.07	92.4841
768.19	92.3708
768.31	92.1747
768.42	91.8252
768.54	91.9478
768.66	92.2273
768.77	92.5450
768.89	92.2423
769.01	92.2343
769.12	92.2662
769.24	92.5576
769.36	92.6596
769.47	92.6833
769.59	92.6187
769.71	92.4230
769.82	92.4800
769.94	91.9703
770.06	91.9694
770.17	92.2388
770.29	92.1253
770.41	92.3337
770.53	92.5898
770.64	92.7540
770.76	92.5652
770.88	93.0351
770.99	92.7803
771.11	92.9912
771.23	92.5333
771.34	92.5747
771.46	92.4430
771.58	92.0998
771.69	91.8547
771.81	92.4607
771.93	92.5199
772.04	92.3274
772.16	92.0193
772.28	92.1697
772.39	91.9074
772.51	91.7883
772.63	91.6087
772.74	91.4522
772.86	91.6897
772.98	92.0418
773.09	91.7797
773.21	91.7152
773.33	92.2473
773.44	92.2476
773.56	91.9417
773.68	92.5099
773.79	92.9146
773.91	93.0267
774.03	92.2482
774.14	92.4931
774.26	92.3803
774.38	92.3991
774.49	92.1526
774.61	92.4785
774.73	92.3515
774.84	92.1243
774.96	91.9678
775.08	91.6500
775.19	92.1756
775.31	92.6386
775.43	93.0283
775.54	92.6557
775.66	93.3252
775.77	92.8112
775.89	91.9660
776.01	91.7008
776.12	92.6539
776.24	92.8078
776.36	93.0560
776.47	93.0960
776.59	93.2823
776.71	92.9031
776.82	92.6463
776.94	92.2684
777.06	92.6537
777.17	92.5982
777.29	92.2127
777.41	91.8320
777.52	91.6899
777.64	91.9853
777.75	91.8560
777.87	91.8469
777.99	92.1298
778.10	92.4472
778.22	91.9263
778.34	91.7328
778.45	91.7650
778.57	91.9256
778.69	91.4499
778.80	91.8231
778.92	92.1431
779.04	92.1830
779.15	91.7519
779.27	92.1262
779.38	92.2232
779.50	92.0238
779.62	92.5210
779.73	91.9774
779.85	92.1784
779.97	92.0881
780.08	91.6615
780.20	90.8467
780.31	91.6107
780.43	91.6408
780.55	91.3823
780.66	91.6374
780.78	92.6179
780.90	92.4327
781.01	92.1962
781.13	91.6504
781.25	91.9556
781.36	91.2953
781.48	91.2846
781.59	91.0694
781.71	91.7228
781.83	91.7720
781.94	91.5035
782.06	91.6601
782.18	92.4019
782.29	92.0334
782.41	91.3748
782.52	91.7795
782.64	91.7595
782.76	91.5444
782.87	91.0644
782.99	90.7940
783.10	91.1196
783.22	91.0810
783.34	90.3654
783.45	90.9175
783.57	91.4589
783.69	90.6485
783.80	90.4087
783.92	90.8170
784.03	90.9431
784.15	91.1037
784.27	91.6779
784.38	91.7599
784.50	92.0603
784.61	92.1176
784.73	92.2495
784.85	91.8532
784.96	92.2625
785.08	92.1222
785.19	92.3743
785.31	92.4289
785.43	92.5250
785.54	92.1771
785.66	91.8270
785.77	92.1180
785.89	91.7904
786.01	91.8454
786.12	91.5888
786.24	91.7902
786.35	91.5525
786.47	92.0931
786.59	92.0352
786.70	92.2549
786.82	92.4991
786.93	92.0553
787.05	91.5266
787.17	91.6615
787.28	92.0271
787.40	91.7974
787.51	92.2042
787.63	92.1101
787.75	91.7626
787.86	91.4269
787.98	91.2422
788.09	90.5468
788.21	90.5087
788.33	91.0487
788.44	90.7963
788.56	91.2213
788.67	91.4541
788.79	92.1075
788.91	91.9307
789.02	91.5963
789.14	91.5609
789.25	91.8499
789.37	91.1889
789.48	91.2250
789.60	91.7180
789.72	91.4642
789.83	91.6186
789.95	91.9812
790.06	91.1589
790.18	91.2172
790.30	91.0048
790.41	90.7353
790.53	91.0862
790.64	91.8527
790.76	91.5842
790.87	91.6554
790.99	91.6374
791.11	91.1566
791.22	90.9183
791.34	91.0755
791.45	91.4776
791.57	91.6355
791.68	91.2570
791.80	91.5501
791.92	92.0282
792.03	91.6559
792.15	91.5269
792.26	91.6782
792.38	91.2146
792.49	91.0966
792.61	91.2507
792.73	91.6060
792.84	93.4057
792.96	88.6631
793.07	89.3825
793.19	90.5527
793.30	90.5819
793.42	89.4586
793.54	93.1539
793.65	92.2742
793.77	91.4212
793.88	90.7442
794.00	90.0918
794.11	91.1920
794.23	91.5947
794.34	91.6427
794.46	90.7341
794.58	90.0487
794.69	90.7518
794.81	90.6767
794.92	89.8179
795.04	90.6959
795.15	91.7287
795.27	91.4614
795.39	91.4165
795.50	91.9265
795.62	92.0800
795.73	91.8273
795.85	90.8544
795.96	90.5878
796.08	90.5907
796.19	90.7913
796.31	90.9388
796.42	91.1899
796.54	91.4209
796.66	91.7222
796.77	90.6883
796.89	91.0546
797.00	92.0691
797.12	91.7838
797.23	91.1031
797.35	91.3960
797.46	90.7615
797.58	90.7657
797.69	90.4990
797.81	90.9399
797.93	91.8226
798.04	91.7333
798.16	91.2545
798.27	91.5707
798.39	91.4648
798.50	91.4206
798.62	91.1081
798.73	91.5615
798.85	91.2944
798.96	91.1112
799.08	90.5305
799.19	90.8486
799.31	90.3438
799.43	90.0542
799.54	89.8022
799.66	89.9955
799.77	90.3635
799.89	90.3802
800.00	90.4366
800.12	89.8216
800.23	90.2957
800.35	90.6636
800.46	90.5602
800.58	91.1677
800.69	92.3626
800.81	91.5866
800.92	91.0282
801.04	91.2354
801.16	91.2263
801.27	91.3504
801.39	91.9044
801.50	91.6982
801.62	91.3269
801.73	91.6403
801.85	90.8990
801.96	90.0159
802.08	90.8405
802.19	91.5698
802.31	90.0544
802.42	90.0959
802.54	90.9910
802.65	90.0561
802.77	89.9147
802.88	90.2903
803.00	90.6656
803.11	90.7714
803.23	90.9383
803.34	90.8482
803.46	91.3065
803.57	91.6222
803.69	90.8731
803.80	90.8623
803.92	90.7914
804.03	90.9292
804.15	90.3421
804.26	90.8738
804.38	90.8563
804.50	90.4253
804.61	90.2817
804.73	90.6461
804.84	90.2637
804.96	90.6624
805.07	90.4502
805.19	90.4373
805.30	90.2747
805.42	90.3814
805.53	90.4158
805.65	90.7909
805.76	90.8355
805.88	90.4894
805.99	90.9471
806.11	91.0175
806.22	91.4738
806.34	91.4895
806.45	91.2007
806.57	91.0662
806.68	90.8035
806.80	90.4570
806.91	90.3989
807.03	90.7971
807.14	90.3385
807.26	89.9480
807.37	90.1811
807.49	89.3026
807.60	88.5645
807.72	88.7104
807.83	88.8623
807.95	88.2891
808.06	88.7548
808.17	90.1692
808.29	90.2030
808.40	89.8200
808.52	90.1395
808.63	90.5766
808.75	89.3448
808.86	89.3049
808.98	89.0920
809.09	89.0304
809.21	88.1379
809.32	89.0829
809.44	88.6449
809.55	89.3760
809.67	89.0212
809.78	89.0796
809.90	89.0919
810.01	88.7630
810.13	88.3292
810.24	88.6790
810.36	89.4485
810.47	88.6619
810.59	88.3384
810.70	88.4841
810.82	88.1418
810.93	88.0052
811.05	88.7817
811.16	88.5830
811.27	87.3375
811.39	87.7774
811.50	88.4478
811.62	87.3256
811.73	88.0876
811.85	88.9429
811.96	88.1550
812.08	87.2747
812.19	87.9485
812.31	88.9389
812.42	88.4938
812.54	88.4292
812.65	88.3995
812.77	87.9837
812.88	86.4281
813.00	87.3094
813.11	87.9735
813.22	88.1940
813.34	87.0884
813.45	86.5638
813.57	86.6694
813.68	87.0984
813.80	86.5705
813.91	85.9372
814.03	87.5429
814.14	86.8950
814.26	85.3521
814.37	85.3769
814.49	87.3076
814.60	85.9913
814.71	85.7811
814.83	85.9577
814.94	85.4033
815.06	85.1931
815.17	86.1299
815.29	84.4541
815.40	84.2709
815.52	85.0188
815.63	84.1922
815.75	84.3593
815.86	86.2183
815.97	85.5678
816.09	84.0484
816.20	85.0378
816.32	83.8196
816.43	83.8588
816.55	82.4289
816.66	83.1715
816.78	82.6392
816.89	82.9179
817.00	82.8115
817.12	83.4518
817.23	83.9274
817.35	84.4282
817.46	82.0093
817.58	81.5244
817.69	81.9766
817.81	81.1541
817.92	79.3325
818.03	81.6648
818.15	81.5992
818.26	81.4007
818.38	84.4434
818.49	90.8642
818.61	66.4838
818.72	66.0037
818.83	71.4923
818.95	68.4642
819.06	61.4104
819.18	86.6719
819.29	85.5388
819.41	79.1064
819.52	78.5999
819.64	79.9671
819.75	79.0587
819.86	78.0839
819.98	78.3023
820.09	78.9128
820.21	76.8155
820.32	74.7623
820.44	77.4170
820.55	77.4048
820.66	75.8749
820.78	74.9187
820.89	76.8158
821.01	75.0073
821.12	75.3978
821.23	72.6712
821.35	73.7435
821.46	74.8909
821.58	75.7050
821.69	71.0805
821.81	72.9945
821.92	73.1156
822.03	72.8528
822.15	71.9891
822.26	74.2075
822.38	74.0564
822.49	72.9795
822.61	68.1310
822.72	67.7983
822.83	69.5253
822.95	66.2481
823.06	62.6660
823.18	64.6572
823.29	63.9352
823.40	64.3715
823.52	59.9515
823.63	62.7312
823.75	65.6437
823.86	59.7744
823.97	57.2907
824.09	62.0000
824.20	62.5577
824.32	55.3223
824.43	51.8571
824.55	52.0301
824.66	54.4489
824.77	47.4184
824.89	45.9598
825.00	49.4561
825.12	47.5754
825.23	44.2419
825.34	40.4655
825.46	40.0738
825.57	43.6607
825.69	36.7574
825.80	32.1029
825.91	33.6648
826.03	33.6749
826.14	23.3709
826.26	21.7385
826.37	17.3094
826.48	21.8916
826.60	14.2425
826.71	11.6276
826.83	3.0078
826.94	0.0000
827.05	0.0000
827.17	0.0000
827.28	0.0000
827.39	0.0000
827.51	0.0000
827.62	0.0000
827.74	0.0000
827.85	0.0000
827.96	0.0000
828.08	0.0000
828.19	0.0000
828.31	0.0000
828.42	0.0000
828.53	0.0000
828.65	0.0000
828.76	0.0000
828.87	0.0000
828.99	0.0000
