Wavelength (nm)	Reflectance (%)
377.35	0.0000
377.48	0.0000
377.62	0.0000
377.75	0.0000
377.88	0.0000
378.02	9.2381
378.15	200.0000
378.28	200.0000
378.41	0.0000
378.55	200.0000
378.68	26.6000
378.81	200.0000
378.95	200.0000
379.08	200.0000
379.21	200.0000
379.35	180.2581
379.48	200.0000
379.61	200.0000
379.74	126.7984
379.88	38.5000
380.01	70.0309
380.14	97.9499
380.28	48.8637
380.41	44.8000
380.54	130.9739
380.68	124.0693
380.81	75.9736
380.94	64.1329
381.07	94.1410
381.21	101.4099
381.34	47.9850
381.47	71.9392
381.61	129.8046
381.74	108.7246
381.87	31.1358
382.00	96.8848
382.14	121.7006
382.27	56.8324
382.40	32.8857
382.54	82.0032
382.67	90.0421
382.80	54.4426
382.93	79.1719
383.07	89.2458
383.20	82.3055
383.33	107.0158
383.47	66.9938
383.60	66.2407
383.73	94.9753
383.86	96.1990
384.00	54.6712
384.13	90.2840
384.26	101.3905
384.40	73.0411
384.53	57.3098
384.66	74.4572
384.79	92.3357
384.93	80.3735
385.06	57.6499
385.19	60.8356
385.33	66.8063
385.46	44.4784
385.59	58.0312
385.72	97.1887
385.86	89.8560
385.99	84.9820
386.12	87.0142
386.25	58.8203
386.39	65.6755
386.52	82.6121
386.65	78.6574
386.79	60.5230
386.92	97.0860
387.05	106.3838
387.18	78.8761
387.32	68.4076
387.45	107.2199
387.58	96.9101
387.71	79.2584
387.85	87.3417
387.98	87.9675
388.11	89.4061
388.25	77.7204
388.38	65.4742
388.51	75.0773
388.64	96.5393
388.78	97.2299
388.91	71.2888
389.04	95.0345
389.17	89.4263
389.31	55.9894
389.44	46.7399
389.57	78.9024
389.70	74.2290
389.84	78.1393
389.97	80.6036
390.10	85.6852
390.24	87.8259
390.37	65.3502
390.50	63.5510
390.63	70.0769
390.77	62.9640
390.90	65.9205
391.03	84.8128
391.16	77.9281
391.30	81.1101
391.43	96.5640
391.56	75.3177
391.69	78.2455
391.83	95.4077
391.96	71.7856
392.09	59.8195
392.22	87.2075
392.36	90.9342
392.49	62.5525
392.62	68.5240
392.75	79.8895
392.89	76.1699
393.02	79.7194
393.15	66.4520
393.28	86.0214
393.42	74.5753
393.55	72.9934
393.68	60.6445
393.81	85.1664
393.95	85.3635
394.08	82.6629
394.21	74.9897
394.34	74.9808
394.48	77.4873
394.61	68.1566
394.74	74.5250
394.87	73.3257
395.01	92.7233
395.14	77.9713
395.27	67.1302
395.40	75.2769
395.54	81.9024
395.67	59.6324
395.80	72.8735
395.93	88.3177
396.07	87.5472
396.20	82.2339
396.33	84.2940
396.46	87.0069
396.59	94.4452
396.73	76.7128
396.86	76.7549
396.99	94.4243
397.12	111.5911
397.26	62.3571
397.39	66.4828
397.52	84.6187
397.65	78.2694
397.79	49.4185
397.92	94.5173
398.05	108.4631
398.18	86.7674
398.32	76.8188
398.45	84.4134
398.58	87.9167
398.71	80.6031
398.84	78.3188
398.98	77.3186
399.11	82.1875
399.24	78.7595
399.37	78.9782
399.51	84.4394
399.64	86.1756
399.77	84.4180
399.90	89.6875
400.03	80.5859
400.17	75.4568
400.30	79.8851
400.43	78.7211
400.56	71.9849
400.70	87.4237
400.83	92.9322
400.96	90.6270
401.09	84.4352
401.23	85.1698
401.36	77.1685
401.49	76.8084
401.62	79.6819
401.75	87.2175
401.89	82.4233
402.02	81.7324
402.15	82.4230
402.28	85.0162
402.41	89.5083
402.55	80.2070
402.68	78.1524
402.81	85.4129
402.94	88.8780
403.08	77.7865
403.21	81.9775
403.34	92.1369
403.47	82.7255
403.60	70.8238
403.74	81.2253
403.87	86.6702
404.00	85.6815
404.13	93.4499
404.26	93.9382
404.40	89.8637
404.53	96.4566
404.66	85.1867
404.79	79.3231
404.93	92.3375
405.06	90.1037
405.19	81.0175
405.32	83.3645
405.45	91.7194
405.59	93.2383
405.72	70.1979
405.85	80.4028
405.98	93.4020
406.11	87.3124
406.25	71.4719
406.38	94.4503
406.51	93.0059
406.64	88.3322
406.77	84.4728
406.91	93.4545
407.04	94.9753
407.17	92.6403
407.30	81.3958
407.43	80.9359
407.57	86.1191
407.70	88.7684
407.83	91.2968
407.96	89.6948
408.09	100.0911
408.23	102.2442
408.36	84.6223
408.49	80.4997
408.62	98.2922
408.75	92.1779
408.89	85.9728
409.02	93.4676
409.15	93.5735
409.28	96.3760
409.41	84.0871
409.55	83.0000
409.68	96.4829
409.81	93.6068
409.94	83.1172
410.07	99.2618
410.20	100.4117
410.34	93.9060
410.47	92.1953
410.60	97.5881
410.73	93.0870
410.86	95.2323
411.00	96.5373
411.13	100.3492
411.26	93.7318
411.39	95.4932
411.52	93.3910
411.66	95.7036
411.79	94.3195
411.92	99.8164
412.05	100.0445
412.18	95.6769
412.31	90.0069
412.45	99.5669
412.58	98.6499
412.71	90.3147
412.84	98.4265
412.97	105.2045
413.11	97.1101
413.24	87.1976
413.37	98.4718
413.50	100.0848
413.63	93.9129
413.76	93.5633
413.90	105.1085
414.03	102.2119
414.16	98.4380
414.29	91.0999
414.42	96.4182
414.56	94.3150
414.69	94.3234
414.82	91.8219
414.95	101.1215
415.08	94.4911
415.21	103.0294
415.35	100.0161
415.48	96.2983
415.61	106.2200
415.74	110.2832
415.87	88.9433
416.00	93.8982
416.14	105.4985
416.27	98.0246
416.40	95.0503
416.53	108.2608
416.66	112.0270
416.79	102.6287
416.93	100.4437
417.06	102.8446
417.19	103.8287
417.32	104.6950
417.45	101.1341
417.58	102.3963
417.72	102.4765
417.85	96.2445
417.98	94.5576
418.11	102.2818
418.24	101.9570
418.37	102.9687
418.51	101.2634
418.64	98.0616
418.77	103.6335
418.90	104.1630
419.03	97.1968
419.16	108.1975
419.29	115.3498
419.43	97.8675
419.56	96.1342
419.69	107.1781
419.82	104.8902
419.95	99.1576
420.08	103.5545
420.22	103.4628
420.35	99.6849
420.48	104.2850
420.61	98.4488
420.74	108.4796
420.87	113.4300
421.00	109.4796
421.14	98.2951
421.27	103.4529
421.40	102.3946
421.53	101.5354
421.66	105.3343
421.79	110.5273
421.93	115.1662
422.06	111.1885
422.19	108.4311
422.32	109.0392
422.45	112.8155
422.58	105.2140
422.71	102.1517
422.85	106.2841
422.98	107.4325
423.11	104.9726
423.24	107.3822
423.37	109.9499
423.50	107.7490
423.63	107.0573
423.77	104.7514
423.90	101.3457
424.03	103.4176
424.16	107.2577
424.29	107.9187
424.42	111.3987
424.55	113.1244
424.69	112.7355
424.82	113.3842
424.95	108.6028
425.08	107.4651
425.21	110.1679
425.34	109.3836
425.47	108.1236
425.60	111.2964
425.74	110.4025
425.87	107.9501
426.00	110.1460
426.13	109.1374
426.26	109.4441
426.39	105.2051
426.52	107.9633
426.66	111.9794
426.79	102.9222
426.92	98.7623
427.05	105.2839
427.18	105.9138
427.31	102.3144
427.44	107.4002
427.57	113.1730
427.71	110.8431
427.84	104.3686
427.97	101.5606
428.10	107.2727
428.23	112.8248
428.36	105.7858
428.49	105.0218
428.62	108.7186
428.76	110.5826
428.89	102.8154
429.02	103.5412
429.15	110.3965
429.28	109.9936
429.41	106.2508
429.54	104.2040
429.67	111.4212
429.81	113.3901
429.94	108.1525
430.07	100.8589
430.20	104.4043
430.33	104.3648
430.46	101.2335
430.59	106.9563
430.72	111.3484
430.85	112.4442
430.99	108.7507
431.12	105.0609
431.25	105.7798
431.38	109.5050
431.51	102.5617
431.64	102.9553
431.77	108.4248
431.90	109.6793
432.03	106.9382
432.17	110.1687
432.30	114.4416
432.43	112.7506
432.56	109.5459
432.69	107.0008
432.82	109.1214
432.95	107.7293
433.08	108.4699
433.21	108.2842
433.35	112.6618
433.48	111.3819
433.61	112.7216
433.74	109.7630
433.87	112.3862
434.00	111.0739
434.13	110.4887
434.26	107.3260
434.39	110.7823
434.53	108.9248
434.66	110.3804
434.79	106.1127
434.92	110.0778
435.05	109.8746
435.18	104.6286
435.31	102.4190
435.44	108.3174
435.57	110.0325
435.70	107.6410
435.84	105.7568
435.97	108.3903
436.10	109.3825
436.23	104.8337
436.36	104.4734
436.49	110.4518
436.62	107.2065
436.75	105.0744
436.88	105.8328
437.01	110.1598
437.14	110.7969
437.28	107.8190
437.41	105.3074
437.54	108.2353
437.67	110.0278
437.80	101.6244
437.93	102.5911
438.06	109.5162
438.19	109.2553
438.32	104.3732
438.45	108.6079
438.58	111.0137
438.72	109.5184
438.85	107.1100
438.98	106.3192
439.11	108.6492
439.24	108.8591
439.37	104.5227
439.50	106.3672
439.63	109.5363
439.76	110.9718
439.89	110.8754
440.02	109.9327
440.15	109.6229
440.29	111.0347
440.42	108.5860
440.55	105.0796
440.68	111.1989
440.81	112.6005
440.94	106.0230
441.07	106.9888
441.20	112.3636
441.33	109.1099
441.46	106.3274
441.59	110.4622
441.72	111.5162
441.85	109.4300
441.99	106.4592
442.12	105.9549
442.25	106.1203
442.38	108.3423
442.51	108.2058
442.64	110.3798
442.77	112.0052
442.90	112.5492
443.03	109.8699
443.16	106.8918
443.29	108.3535
443.42	106.3952
443.55	105.8208
443.68	105.7980
443.82	109.5319
443.95	106.7870
444.08	107.9976
444.21	107.0988
444.34	107.3918
444.47	107.0570
444.60	109.8356
444.73	107.3479
444.86	107.5767
444.99	108.2038
445.12	109.6383
445.25	107.4272
445.38	108.8669
445.51	111.0746
445.64	114.4592
445.78	107.8207
445.91	106.6377
446.04	110.9857
446.17	107.6557
446.30	102.6399
446.43	109.3556
446.56	112.1287
446.69	106.4148
446.82	105.1975
446.95	107.0995
447.08	107.6629
447.21	105.8874
447.34	106.9514
447.47	109.6896
447.60	107.5028
447.73	106.5456
447.86	108.2973
447.99	108.6110
448.13	109.8004
448.26	109.9043
448.39	107.4302
448.52	107.8417
448.65	108.3212
448.78	105.3045
448.91	108.1116
449.04	108.5189
449.17	107.5423
449.30	108.8782
449.43	107.9396
449.56	106.3532
449.69	110.4056
449.82	109.0358
449.95	106.5290
450.08	109.3163
450.21	110.3309
450.34	106.7863
450.47	109.1282
450.60	112.0007
450.73	113.5369
450.87	112.1596
451.00	107.2290
451.13	107.9832
451.26	106.1151
451.39	104.0940
451.52	104.4325
451.65	110.2049
451.78	111.0541
451.91	108.7604
452.04	106.6693
452.17	108.9786
452.30	109.3186
452.43	104.9984
452.56	109.5934
452.69	109.1147
452.82	107.0613
452.95	108.3493
453.08	107.6477
453.21	106.7743
453.34	108.9479
453.47	105.8455
453.60	103.4435
453.73	106.0995
453.86	104.3651
453.99	105.1188
454.12	107.5001
454.25	109.1365
454.38	108.3234
454.52	109.0315
454.65	109.4893
454.78	109.0765
454.91	108.1974
455.04	109.8303
455.17	106.7952
455.30	106.7379
455.43	109.3298
455.56	107.7593
455.69	105.3558
455.82	109.2717
455.95	108.7619
456.08	107.6571
456.21	109.3799
456.34	109.9160
456.47	109.2811
456.60	109.2602
456.73	107.0924
456.86	106.7688
456.99	107.7651
457.12	105.3991
457.25	104.1307
457.38	104.9873
457.51	105.0773
457.64	104.7416
457.77	106.5720
457.90	107.3884
458.03	107.8313
458.16	106.8343
458.29	107.2851
458.42	107.8720
458.55	108.7071
458.68	107.0126
458.81	104.0358
458.94	105.8369
459.07	107.0943
459.20	105.8420
459.33	104.6324
459.46	107.6168
459.59	107.6837
459.72	104.3591
459.85	103.7220
459.98	106.7451
460.11	108.4647
460.24	104.6525
460.37	105.7437
460.50	107.7576
460.63	107.9405
460.76	105.2320
460.89	106.3263
461.02	107.8658
461.15	107.4117
461.28	104.5202
461.41	106.8322
461.54	107.7664
461.67	105.8972
461.80	105.9404
461.93	107.0996
462.06	106.7692
462.19	107.8063
462.32	107.0270
462.45	107.0339
462.58	107.8369
462.71	108.4007
462.84	106.5688
462.97	107.1097
463.10	106.0673
463.23	106.2419
463.36	106.6565
463.49	106.5909
463.62	107.1260
463.75	107.8239
463.88	109.6072
464.01	105.3906
464.14	106.5249
464.27	107.7511
464.40	106.7415
464.53	104.9317
464.66	106.7571
464.79	107.0496
464.92	106.0959
465.05	106.5061
465.18	106.7319
465.31	108.2265
465.44	108.0617
465.57	105.2945
465.70	106.0839
465.83	107.7659
465.96	106.1311
466.09	104.9991
466.22	108.4039
466.35	108.5844
466.48	107.0678
466.61	107.1642
466.74	106.6441
466.87	105.5563
467.00	104.0978
467.13	105.0708
467.26	106.9183
467.39	108.0207
467.52	106.6472
467.65	107.7860
467.78	106.6290
467.91	105.1436
468.04	104.8131
468.17	107.0891
468.30	107.1784
468.43	106.7236
468.56	106.2262
468.69	107.7579
468.82	107.4790
468.95	107.5941
469.08	108.8746
469.21	108.3621
469.34	106.0959
469.47	107.0262
469.60	106.7889
469.73	105.4980
469.86	108.3498
469.99	109.6518
470.11	107.5125
470.24	107.2244
470.37	108.4764
470.50	107.8372
470.63	106.7945
470.76	106.3111
470.89	107.8265
471.02	108.1143
471.15	105.6529
471.28	105.0146
471.41	107.0224
471.54	107.1083
471.67	104.8979
471.80	105.8099
471.93	107.4911
472.06	108.1456
472.19	105.0960
472.32	105.5749
472.45	106.5881
472.58	106.1399
472.71	105.3119
472.84	107.4792
472.97	107.0937
473.10	107.5770
473.23	106.3423
473.36	105.5016
473.49	104.9005
473.62	105.3611
473.74	104.8568
473.87	106.7144
474.00	106.9062
474.13	106.4665
474.26	107.0722
474.39	106.8952
474.52	105.5296
474.65	106.8992
474.78	107.8771
474.91	106.0878
475.04	105.8196
475.17	106.7076
475.30	105.1421
475.43	104.8697
475.56	106.6199
475.69	107.7718
475.82	106.9310
475.95	108.0117
476.08	108.2512
476.21	108.1559
476.34	106.4936
476.46	107.5732
476.59	107.2198
476.72	107.4283
476.85	106.2471
476.98	106.3062
477.11	106.6887
477.24	106.1632
477.37	104.9995
477.50	106.1406
477.63	106.8415
477.76	106.2867
477.89	106.0125
478.02	106.2141
478.15	106.3323
478.28	106.7628
478.41	105.5229
478.54	106.2034
478.66	106.4904
478.79	106.2526
478.92	105.4769
479.05	106.3958
479.18	105.7072
479.31	105.9903
479.44	105.9324
479.57	106.0152
479.70	106.8643
479.83	107.8011
479.96	106.0946
480.09	105.6537
480.22	105.9873
480.35	105.2488
480.48	104.9634
480.60	105.6435
480.73	106.2651
480.86	106.4025
480.99	106.1624
481.12	105.1710
481.25	106.4664
481.38	106.5251
481.51	105.6363
481.64	105.7647
481.77	106.8070
481.90	106.3797
482.03	105.3839
482.16	106.0066
482.29	106.1241
482.41	106.4377
482.54	106.5252
482.67	107.1095
482.80	107.6274
482.93	107.0234
483.06	106.3080
483.19	106.4244
483.32	106.7867
483.45	105.9785
483.58	105.8603
483.71	105.7159
483.84	105.3600
483.97	105.1038
484.09	105.1782
484.22	105.8984
484.35	106.0821
484.48	105.8010
484.61	105.7797
484.74	106.1046
484.87	105.8490
485.00	106.1999
485.13	106.3639
485.26	106.9549
485.39	106.0759
485.52	105.7555
485.64	105.1514
485.77	105.6365
485.90	105.1771
486.03	106.2314
486.16	106.3396
486.29	106.5162
486.42	106.4253
486.55	106.0092
486.68	105.4295
486.81	106.0688
486.94	105.9650
487.06	105.2477
487.19	105.5636
487.32	105.8692
487.45	105.2624
487.58	105.7781
487.71	106.0326
487.84	105.6893
487.97	105.4678
488.10	106.0468
488.23	105.3574
488.35	105.7236
488.48	106.2380
488.61	106.5040
488.74	106.1576
488.87	105.8110
489.00	105.7124
489.13	105.8351
489.26	105.6254
489.39	105.4920
489.52	106.1895
489.64	105.9418
489.77	105.6087
489.90	105.3403
490.03	105.4754
490.16	105.6841
490.29	105.3044
490.42	105.6116
490.55	105.7047
490.68	106.2076
490.81	105.2891
490.93	105.5788
491.06	105.4547
491.19	105.2186
491.32	104.8722
491.45	105.3621
491.58	105.6169
491.71	105.7947
491.84	105.4528
491.97	105.1978
492.09	105.6217
492.22	105.2073
492.35	104.9321
492.48	105.7364
492.61	105.4706
492.74	105.1625
492.87	105.6226
493.00	105.3204
493.12	105.1342
493.25	105.7224
493.38	106.2179
493.51	105.8630
493.64	106.0640
493.77	106.1249
493.90	105.4862
494.03	104.8946
494.16	105.2687
494.28	105.7104
494.41	105.0416
494.54	105.2295
494.67	106.0227
494.80	105.8782
494.93	105.7016
495.06	106.6580
495.19	107.2402
495.31	106.9427
495.44	106.7247
495.57	106.7638
495.70	106.8113
495.83	106.6301
495.96	105.8020
496.09	105.5594
496.22	106.0214
496.34	105.7859
496.47	105.1690
496.60	105.3623
496.73	106.0469
496.86	105.1622
496.99	105.2045
497.12	105.4528
497.24	105.4017
497.37	105.1577
497.50	105.5540
497.63	104.8082
497.76	104.4887
497.89	105.5419
498.02	105.6584
498.15	105.4019
498.27	105.7689
498.40	106.2464
498.53	105.5882
498.66	105.9470
498.79	106.0257
498.92	106.1160
499.05	106.3012
499.17	105.7792
499.30	105.4179
499.43	105.9890
499.56	105.9889
499.69	105.8063
499.82	106.4857
499.95	106.6242
500.07	106.1771
500.20	105.3701
500.33	105.3627
500.46	105.5097
500.59	105.2094
500.72	104.8714
500.85	105.5080
500.97	106.0275
501.10	105.8840
501.23	105.3895
501.36	105.4681
501.49	105.8888
501.62	104.9500
501.75	105.1712
501.87	105.5971
502.00	105.5771
502.13	105.4998
502.26	105.7715
502.39	105.6401
502.52	105.5951
502.64	105.2989
502.77	105.1567
502.90	105.6271
503.03	105.4655
503.16	105.1113
503.29	105.5662
503.42	105.8554
503.54	105.7587
503.67	105.1960
503.80	106.1741
503.93	106.3090
504.06	105.5898
504.19	105.3622
504.31	105.5861
504.44	104.9781
504.57	105.1455
504.70	105.3995
504.83	105.4366
504.96	105.6604
505.08	105.0862
505.21	104.6678
505.34	104.8827
505.47	104.8476
505.60	104.8356
505.73	104.7823
505.85	105.0580
505.98	105.3024
506.11	105.2520
506.24	105.0985
506.37	105.3378
506.50	105.3096
506.62	105.0447
506.75	104.7490
506.88	105.2008
507.01	105.5435
507.14	105.4936
507.27	105.5116
507.39	106.0140
507.52	105.3223
507.65	105.5990
507.78	105.3103
507.91	105.1045
508.04	104.7798
508.16	105.0791
508.29	105.2593
508.42	105.6221
508.55	105.1395
508.68	105.3030
508.81	105.3965
508.93	104.8762
509.06	104.5543
509.19	105.2325
509.32	104.9005
509.45	104.9183
509.57	104.9589
509.70	105.0955
509.83	104.8963
509.96	105.0859
510.09	105.0025
510.22	105.1992
510.34	104.7678
510.47	104.8793
510.60	104.8429
510.73	104.7176
510.86	104.6324
510.98	104.7600
511.11	104.5508
511.24	104.7336
511.37	104.8600
511.50	104.7630
511.63	105.0258
511.75	105.0664
511.88	104.9322
512.01	104.8520
512.14	104.9041
512.27	104.9188
512.39	104.8919
512.52	104.9056
512.65	104.9301
512.78	104.6714
512.91	104.3845
513.03	104.2064
513.16	104.2283
513.29	104.0192
513.42	103.8987
513.55	104.3481
513.67	104.7738
513.80	104.4694
513.93	104.3199
514.06	104.5961
514.19	104.1087
514.31	104.0677
514.44	104.0628
514.57	103.8883
514.70	104.0960
514.83	104.4451
514.95	104.2583
515.08	104.4343
515.21	104.8848
515.34	104.9355
515.47	104.7616
515.59	104.7168
515.72	104.2633
515.85	104.2912
515.98	103.8569
516.11	103.6293
516.23	103.8202
516.36	104.4690
516.49	104.2142
516.62	104.1210
516.75	104.8163
516.87	104.7303
517.00	103.9720
517.13	104.1103
517.26	104.8359
517.39	104.2697
517.51	103.6997
517.64	104.4246
517.77	104.2826
517.90	103.8230
518.02	104.1294
518.15	104.3502
518.28	103.9434
518.41	103.8674
518.54	103.7850
518.66	103.6894
518.79	103.8407
518.92	103.7890
519.05	103.5806
519.18	103.5780
519.30	103.3853
519.43	103.3983
519.56	103.2935
519.69	103.7853
519.81	104.0568
519.94	104.0569
520.07	104.0416
520.20	104.1775
520.33	104.0675
520.45	103.7311
520.58	103.4598
520.71	103.3533
520.84	103.5185
520.96	103.5205
521.09	103.2271
521.22	103.1946
521.35	103.4487
521.48	103.4656
521.60	103.2218
521.73	102.9476
521.86	103.3136
521.99	103.3566
522.11	103.0196
522.24	103.2517
522.37	103.3305
522.50	103.5881
522.62	103.3331
522.75	103.5871
522.88	103.3983
523.01	103.6527
523.14	103.0189
523.26	103.3543
523.39	102.9678
523.52	103.0949
523.65	103.3195
523.77	103.4748
523.90	103.0643
524.03	103.3738
524.16	103.4370
524.28	103.3319
524.41	103.7554
524.54	103.9949
524.67	103.7374
524.79	103.3574
524.92	103.6775
525.05	103.2814
525.18	103.4614
525.31	103.1225
525.43	103.6772
525.56	103.9578
525.69	103.8578
525.82	103.4102
525.94	104.0553
526.07	103.9114
526.20	103.1280
526.33	103.1673
526.45	103.3073
526.58	103.3377
526.71	103.0077
526.84	103.3714
526.96	103.2993
527.09	103.3011
527.22	103.3746
527.35	103.1188
527.47	103.1468
527.60	103.1946
527.73	103.0449
527.86	102.9042
527.98	103.5032
528.11	103.1511
528.24	103.4188
528.37	103.4359
528.49	103.0098
528.62	103.2241
528.75	103.4971
528.88	103.2982
529.00	103.6011
529.13	104.0760
529.26	103.3157
529.39	103.0170
529.51	103.3294
529.64	103.2117
529.77	102.9031
529.90	103.2845
530.02	103.7313
530.15	103.5546
530.28	103.4871
530.40	103.5667
530.53	103.6651
530.66	103.1303
530.79	103.0432
530.91	102.8850
531.04	102.9512
531.17	102.7341
531.30	103.0036
531.42	102.5041
531.55	102.8763
531.68	103.1232
531.81	103.2027
531.93	103.5110
532.06	103.9618
532.19	103.6203
532.31	103.2936
532.44	103.5093
532.57	103.1989
532.70	103.0157
532.82	102.8305
532.95	102.6650
533.08	102.5724
533.21	102.7644
533.33	103.0127
533.46	102.8490
533.59	103.3240
533.71	103.4592
533.84	103.4345
533.97	103.3625
534.10	103.7442
534.22	103.6423
534.35	103.1846
534.48	103.1263
534.61	103.2525
534.73	103.1125
534.86	102.7847
534.99	103.0860
535.11	103.1271
535.24	103.2032
535.37	103.5388
535.50	103.5939
535.62	103.3119
535.75	103.1720
535.88	102.8286
536.00	102.4144
536.13	102.4756
536.26	102.7730
536.39	102.5884
536.51	102.8700
536.64	103.2987
536.77	103.3547
536.89	103.1741
537.02	103.4399
537.15	103.2300
537.28	103.2030
537.40	102.9820
537.53	102.9947
537.66	103.1171
537.78	103.4531
537.91	103.4453
538.04	104.1189
538.17	104.0046
538.29	103.5645
538.42	103.3326
538.55	103.4203
538.67	103.0142
538.80	103.5209
538.93	103.5930
539.05	103.5197
539.18	103.3061
539.31	103.5839
539.44	103.2006
539.56	103.4101
539.69	103.7280
539.82	103.8935
539.94	103.2804
540.07	103.3737
540.20	103.4195
540.32	103.0987
540.45	102.7026
540.58	103.2950
540.71	103.5433
540.83	103.6228
540.96	103.4698
541.09	103.5183
541.21	103.5407
541.34	103.3969
541.47	103.1202
541.59	102.9122
541.72	103.0961
541.85	103.2154
541.98	103.1466
542.10	102.8570
542.23	103.3023
542.36	103.4074
542.48	103.1998
542.61	103.0716
542.74	103.5421
542.86	103.6702
542.99	103.4689
543.12	103.4294
543.24	103.3846
543.37	103.3695
543.50	103.2250
543.62	103.6016
543.75	103.7636
543.88	103.8356
544.01	103.6961
544.13	103.8213
544.26	103.6688
544.39	103.3852
544.51	103.3755
544.64	103.6718
544.77	103.4304
544.89	103.4547
545.02	103.3070
545.15	103.0054
545.27	102.8875
545.40	102.9472
545.53	103.0315
545.65	103.4940
545.78	103.9024
545.91	103.7630
546.03	104.0409
546.16	103.9572
546.29	103.6754
546.41	103.8019
546.54	103.6974
546.67	103.2708
546.79	103.4462
546.92	103.3970
547.05	103.2739
547.17	103.4315
547.30	103.8299
547.43	103.5405
547.56	103.6637
547.68	103.5867
547.81	103.5431
547.94	103.4146
548.06	103.1787
548.19	103.1851
548.32	103.3367
548.44	103.2206
548.57	102.8964
548.70	103.0605
548.82	103.0818
548.95	103.1547
549.08	102.8928
549.20	103.0911
549.33	103.2585
549.45	103.4334
549.58	103.1303
549.71	103.8187
549.83	103.8418
549.96	103.6607
550.09	103.2685
550.21	103.5041
550.34	103.1495
550.47	103.4354
550.59	103.4037
550.72	103.0844
550.85	103.0377
550.97	103.2713
551.10	102.8069
551.23	102.8325
551.35	103.3977
551.48	103.5175
551.61	103.1113
551.73	103.2030
551.86	103.3455
551.99	102.9889
552.11	102.6775
552.24	103.0246
552.37	103.1490
552.49	103.0403
552.62	103.2197
552.75	103.3867
552.87	103.2148
553.00	103.1910
553.12	103.0847
553.25	102.8732
553.38	102.6881
553.50	102.8096
553.63	102.6156
553.76	102.6666
553.88	102.9174
554.01	102.9250
554.14	102.6643
554.26	103.0195
554.39	103.0887
554.52	103.1107
554.64	103.0982
554.77	103.1610
554.89	102.9431
555.02	102.9403
555.15	102.8646
555.27	102.6671
555.40	102.8825
555.53	103.0587
555.65	102.8005
555.78	102.5567
555.91	102.9293
556.03	102.9246
556.16	102.6215
556.29	102.5610
556.41	102.9704
556.54	102.9968
556.66	102.5202
556.79	102.6146
556.92	103.1469
557.04	102.8878
557.17	102.6336
557.30	102.9170
557.42	102.7545
557.55	102.4486
557.67	102.3524
557.80	102.3003
557.93	102.5457
558.05	102.6796
558.18	102.5611
558.31	102.5102
558.43	102.6725
558.56	102.6320
558.68	102.5491
558.81	102.3152
558.94	102.5678
559.06	102.5193
559.19	102.3392
559.32	102.3223
559.44	102.6245
559.57	102.5091
559.69	102.2992
559.82	102.2563
559.95	102.5048
560.07	102.5098
560.20	102.3205
560.33	102.6382
560.45	102.3473
560.58	102.2964
560.70	102.3135
560.83	102.4034
560.96	102.0268
561.08	102.4264
561.21	102.5170
561.33	102.1285
561.46	102.2111
561.59	102.4480
561.71	102.3778
561.84	102.0962
561.97	102.6283
562.09	102.6828
562.22	102.5369
562.34	102.4982
562.47	102.5664
562.60	102.4191
562.72	102.2151
562.85	102.3108
562.97	102.3236
563.10	102.3584
563.23	102.1874
563.35	102.1763
563.48	101.9872
563.60	102.0906
563.73	102.1232
563.86	102.2448
563.98	102.4619
564.11	102.3874
564.23	102.2435
564.36	102.0132
564.49	102.0529
564.61	101.9596
564.74	101.9596
564.86	101.8814
564.99	101.8516
565.12	101.8778
565.24	101.8675
565.37	102.0012
565.49	102.1439
565.62	102.5890
565.75	102.0546
565.87	102.0160
566.00	102.3997
566.12	102.1589
566.25	101.9922
566.38	102.3182
566.50	102.3196
566.63	102.1521
566.75	102.4454
566.88	102.3739
567.01	102.5542
567.13	102.7687
567.26	102.4724
567.38	102.4359
567.51	102.3534
567.64	102.2530
567.76	102.1409
567.89	102.3807
568.01	102.1952
568.14	102.1680
568.26	102.2019
568.39	102.0787
568.52	102.0396
568.64	102.1681
568.77	102.2167
568.89	102.3710
569.02	102.4933
569.15	102.3546
569.27	102.1171
569.40	102.0695
569.52	101.9611
569.65	101.9852
569.77	102.1901
569.90	102.1252
570.03	102.3400
570.15	102.3863
570.28	102.5983
570.40	102.5370
570.53	102.7531
570.66	102.6656
570.78	102.6718
570.91	102.3604
571.03	102.3424
571.16	102.5160
571.28	102.5326
571.41	102.7035
571.54	102.7526
571.66	102.7556
571.79	102.7049
571.91	102.5289
572.04	102.0480
572.16	102.0322
572.29	101.9902
572.42	101.9951
572.54	101.9887
572.67	102.3046
572.79	102.3654
572.92	102.4481
573.04	102.6040
573.17	102.9057
573.29	102.5805
573.42	102.4476
573.55	102.4520
573.67	102.3844
573.80	102.3766
573.92	102.5077
574.05	102.6002
574.17	102.6979
574.30	102.8472
574.43	102.6920
574.55	102.9594
574.68	103.0121
574.80	103.0185
574.93	102.8898
575.05	102.9528
575.18	102.7624
575.30	102.6553
575.43	102.7982
575.56	102.8409
575.68	102.9850
575.81	102.9724
575.93	103.0902
576.06	103.0722
576.18	103.0382
576.31	102.5876
576.43	102.6667
576.56	102.7214
576.69	102.7674
576.81	102.8754
576.94	103.2713
577.06	103.4578
577.19	103.4492
577.31	103.0756
577.44	102.9916
577.56	102.8092
577.69	102.8435
577.82	103.1616
577.94	103.2157
578.07	103.0499
578.19	103.4969
578.32	103.5604
578.44	103.3510
578.57	103.7427
578.69	103.8932
578.82	103.6082
578.94	103.5495
579.07	103.5407
579.19	103.4048
579.32	103.6263
579.45	103.8674
579.57	103.7906
579.70	103.9244
579.82	103.7709
579.95	103.7133
580.07	103.4765
580.20	103.5107
580.32	103.4266
580.45	103.5569
580.57	103.3886
580.70	103.3213
580.82	103.7374
580.95	103.5118
581.08	103.5809
581.20	103.6060
581.33	103.7409
581.45	103.1431
581.58	103.6306
581.70	103.5708
581.83	103.5737
581.95	103.7016
582.08	104.0613
582.20	103.9094
582.33	104.0290
582.45	103.9968
582.58	103.9456
582.70	103.9032
582.83	103.8495
582.95	103.8649
583.08	103.9354
583.21	104.0988
583.33	104.4775
583.46	104.5540
583.58	104.4477
583.71	104.6473
583.83	104.6117
583.96	104.2594
584.08	104.1791
584.21	104.3750
584.33	104.4720
584.46	104.2454
584.58	104.1086
584.71	104.3067
584.83	104.4314
584.96	104.2261
585.08	104.2683
585.21	104.5001
585.33	104.3718
585.46	104.3728
585.58	104.5347
585.71	104.5161
585.83	104.6315
585.96	104.5809
586.08	104.3848
586.21	104.5277
586.33	104.6597
586.46	104.6195
586.59	104.7068
586.71	104.7610
586.84	104.7804
586.96	104.9578
587.09	104.6214
587.21	104.6507
587.34	104.8145
587.46	104.5092
587.59	104.4237
587.71	104.9116
587.84	105.0403
587.96	104.7747
588.09	104.8838
588.21	104.8950
588.34	104.7850
588.46	104.8220
588.59	105.1136
588.71	105.2034
588.84	104.9052
588.96	104.8648
589.09	104.9753
589.21	105.0092
589.34	104.8931
589.46	105.1598
589.59	105.3962
589.71	105.3794
589.84	105.2421
589.96	105.2920
590.09	105.3616
590.21	105.1789
590.34	105.2652
590.46	105.3091
590.59	105.1908
590.71	105.4307
590.84	105.2866
590.96	105.1227
591.09	105.2751
591.21	105.7171
591.34	105.3247
591.46	105.4267
591.59	105.2608
591.71	105.3316
591.83	105.0685
591.96	105.3620
592.08	105.4953
592.21	105.8042
592.33	105.8909
592.46	105.9265
592.58	105.7684
592.71	105.7652
592.83	105.4524
592.96	105.3134
593.08	105.4913
593.21	105.6785
593.33	105.6918
593.46	105.7618
593.58	105.6673
593.71	105.7686
593.83	105.5262
593.96	105.4886
594.08	105.7402
594.21	105.7854
594.33	105.8238
594.46	106.1956
594.58	106.2739
594.71	106.1823
594.83	105.7409
594.96	105.4667
595.08	105.4268
595.20	105.5118
595.33	105.0590
595.45	105.4619
595.58	105.7222
595.70	105.7003
595.83	105.5192
595.95	106.0207
596.08	106.2313
596.20	106.1162
596.33	106.1842
596.45	106.4626
596.58	106.3002
596.70	106.1768
596.83	106.0432
596.95	106.1251
597.08	105.9075
597.20	105.9606
597.32	105.9096
597.45	105.9916
597.57	105.9149
597.70	105.8959
597.82	106.0083
597.95	105.9718
598.07	105.9195
598.20	105.9125
598.32	105.8514
598.45	105.7130
598.57	105.8882
598.70	106.0530
598.82	105.8368
598.94	105.8323
599.07	105.9425
599.19	106.1842
599.32	105.8727
599.44	105.9926
599.57	106.1385
599.69	106.3037
599.82	105.7006
599.94	105.8528
600.07	106.0573
600.19	106.1826
600.31	105.7509
600.44	105.9570
600.56	106.1029
600.69	106.0124
600.81	105.9431
600.94	106.1289
601.06	106.0690
601.19	106.2262
601.31	105.9698
601.44	105.9019
601.56	105.9739
601.68	106.1568
601.81	105.7388
601.93	106.0693
602.06	106.2690
602.18	106.0844
602.31	105.9000
602.43	106.0902
602.56	106.0104
602.68	105.7448
602.80	106.1363
602.93	106.2984
603.05	106.2867
603.18	106.3845
603.30	106.6130
603.43	106.3876
603.55	106.3687
603.68	106.4075
603.80	106.2488
603.92	106.0989
604.05	106.3315
604.17	106.3349
604.30	106.2616
604.42	106.1366
604.55	106.1937
604.67	106.0575
604.79	106.0004
604.92	106.1010
605.04	106.2744
605.17	106.2313
605.29	106.0104
605.42	106.1606
605.54	106.1025
605.66	106.0537
605.79	105.9676
605.91	106.2410
606.04	106.0740
606.16	106.0829
606.29	106.3034
606.41	106.5493
606.53	106.4628
606.66	106.7706
606.78	106.9573
606.91	106.8593
607.03	106.9169
607.16	106.8839
607.28	106.6331
607.40	106.6367
607.53	106.7072
607.65	106.7068
607.78	106.6325
607.90	106.8901
608.03	106.8173
608.15	106.9135
608.27	106.9275
608.40	107.2266
608.52	106.9156
608.65	107.1151
608.77	106.8302
608.89	106.4651
609.02	106.4332
609.14	106.4947
609.27	106.3836
609.39	106.8916
609.52	107.2502
609.64	107.3496
609.76	107.3548
609.89	107.1103
610.01	106.8595
610.14	106.8204
610.26	106.5226
610.38	106.8290
610.51	107.1180
610.63	107.0235
610.76	107.0252
610.88	106.9423
611.01	106.7255
611.13	106.7152
611.25	106.7549
611.38	106.8552
611.50	107.0907
611.63	107.2891
611.75	107.2598
611.87	107.0575
612.00	106.8822
612.12	107.1006
612.25	106.9991
612.37	106.9754
612.49	106.9178
612.62	107.0484
612.74	106.8696
612.87	106.9943
612.99	106.8917
613.11	106.9323
613.24	106.8869
613.36	106.9308
613.49	106.8336
613.61	106.8197
613.73	107.1293
613.86	107.1758
613.98	107.0883
614.11	106.9813
614.23	107.0092
614.35	106.9610
614.48	106.9370
614.60	106.9089
614.72	107.0320
614.85	107.1961
614.97	107.2886
615.10	107.2376
615.22	107.3099
615.34	107.4765
615.47	107.4750
615.59	107.3961
615.72	107.7084
615.84	107.4537
615.96	107.3689
616.09	107.5451
616.21	107.4364
616.34	107.1625
616.46	107.5187
616.58	107.4840
616.71	107.2453
616.83	107.2461
616.95	107.3661
617.08	107.4651
617.20	107.6084
617.33	107.5047
617.45	107.7058
617.57	107.7499
617.70	107.5633
617.82	107.3420
617.95	107.5641
618.07	107.4123
618.19	107.1768
618.32	107.3051
618.44	107.5056
618.56	107.6565
618.69	107.5021
618.81	107.7145
618.94	107.6725
619.06	107.5340
619.18	107.4752
619.31	107.5634
619.43	107.3637
619.55	107.6715
619.68	107.9086
619.80	107.5235
619.92	107.5262
620.05	107.8879
620.17	107.9284
620.30	107.7578
620.42	108.1062
620.54	108.3975
620.67	108.3441
620.79	107.9012
620.91	107.9110
621.04	107.9687
621.16	108.1558
621.29	108.1293
621.41	108.3630
621.53	108.6695
621.66	108.4787
621.78	107.9605
621.90	108.1320
622.03	108.2257
622.15	108.0549
622.27	108.3353
622.40	108.5189
622.52	108.5878
622.64	108.5307
622.77	108.2323
622.89	108.1914
623.02	108.3159
623.14	108.1202
623.26	107.9875
623.39	108.3921
623.51	108.5723
623.63	108.4522
623.76	108.4000
623.88	108.5678
624.00	108.4280
624.13	108.2940
624.25	108.3241
624.37	108.1941
624.50	108.4896
624.62	108.8082
624.75	108.6296
624.87	108.9256
624.99	109.2410
625.12	108.5671
625.24	108.3352
625.36	108.5465
625.49	108.2914
625.61	108.0139
625.73	108.6538
625.86	108.7376
625.98	108.8583
626.10	108.9103
626.23	109.1000
626.35	109.0424
626.47	109.0645
626.60	108.9962
626.72	109.0289
626.84	109.2279
626.97	109.3587
627.09	109.1286
627.21	109.0578
627.34	109.4463
627.46	109.4996
627.58	109.2014
627.71	109.8904
627.83	109.8326
627.95	109.2156
628.08	109.0763
628.20	109.3680
628.32	109.0289
628.45	109.1766
628.57	109.5559
628.69	109.4902
628.82	109.5709
628.94	109.5893
629.06	109.5917
629.19	109.8652
629.31	110.0361
629.43	109.9816
629.56	109.9131
629.68	110.1908
629.80	110.2123
629.93	110.3326
630.05	110.3446
630.17	110.7521
630.30	110.6482
630.42	110.7286
630.54	110.9205
630.67	110.6853
630.79	110.5103
630.91	110.4815
631.04	110.3856
631.16	110.2817
631.28	110.6732
631.41	110.5516
631.53	110.5095
631.65	110.3616
631.78	110.2512
631.90	110.4339
632.02	110.3653
632.14	110.5489
632.27	110.7614
632.39	110.5495
632.51	110.3709
632.64	110.6739
632.76	110.7204
632.88	110.8042
633.01	111.0548
633.13	110.6587
633.25	110.7961
633.38	110.9057
633.50	110.8836
633.62	111.1502
633.75	111.5242
633.87	111.4634
633.99	111.6411
634.11	111.5654
634.24	111.5577
634.36	111.6759
634.48	111.4027
634.61	111.3816
634.73	111.5404
634.85	111.5477
634.98	111.6074
635.10	111.5966
635.22	111.4704
635.35	111.7967
635.47	111.8442
635.59	111.7842
635.71	111.9866
635.84	111.9312
635.96	111.8341
636.08	111.7464
636.21	111.6826
636.33	111.9596
636.45	112.1828
636.58	111.7067
636.70	111.8287
636.82	112.2614
636.94	112.0573
637.07	111.8973
637.19	112.2792
637.31	112.5282
637.44	112.3723
637.56	112.6075
637.68	112.8306
637.81	113.3312
637.93	113.0427
638.05	112.5957
638.17	112.6240
638.30	112.6789
638.42	112.2418
638.54	112.4120
638.67	112.7826
638.79	112.9140
638.91	112.8682
639.03	112.9362
639.16	112.8783
639.28	112.9702
639.40	112.5273
639.53	112.5249
639.65	112.6315
639.77	112.5575
639.89	112.5026
640.02	112.9348
640.14	112.6884
640.26	112.6781
640.39	112.9215
640.51	112.8623
640.63	112.6880
640.75	113.0983
640.88	113.1206
641.00	112.6888
641.12	113.0890
641.24	113.5263
641.37	113.0968
641.49	113.1731
641.61	113.5607
641.74	113.5674
641.86	113.1425
641.98	113.4984
642.10	113.5439
642.23	113.6124
642.35	113.3466
642.47	113.4070
642.60	113.5636
642.72	113.4957
642.84	113.3921
642.96	113.4158
643.09	113.5973
643.21	113.5499
643.33	113.5362
643.45	113.4751
643.58	113.7387
643.70	113.6816
643.82	113.7372
643.94	113.8593
644.07	114.0330
644.19	113.8526
644.31	114.0294
644.44	114.0142
644.56	114.0265
644.68	114.1636
644.80	114.3826
644.93	114.2696
645.05	114.3769
645.17	114.4682
645.29	114.4679
645.42	114.2001
645.54	114.1776
645.66	114.1721
645.78	114.0226
645.91	113.7745
646.03	114.0596
646.15	114.1842
646.27	114.1585
646.40	114.0699
646.52	114.4463
646.64	114.5776
646.76	114.4120
646.89	114.3332
647.01	114.3023
647.13	114.4575
647.25	114.2894
647.38	114.2565
647.50	114.5621
647.62	114.9729
647.74	114.5916
647.87	114.3761
647.99	114.6120
648.11	114.6586
648.23	114.4006
648.36	114.6381
648.48	115.0666
648.60	115.3585
648.72	114.8765
648.85	115.0556
648.97	115.1353
649.09	115.0875
649.21	114.8577
649.34	115.1686
649.46	115.2004
649.58	115.2621
649.70	114.9356
649.83	114.7891
649.95	114.7080
650.07	114.5920
650.19	114.3757
650.32	114.5709
650.44	114.8002
650.56	114.9246
650.68	115.0682
650.81	115.0332
650.93	115.1417
651.05	114.9788
651.17	115.0349
651.29	115.0451
651.42	115.3855
651.54	115.6327
651.66	115.6920
651.78	115.2203
651.91	115.2232
652.03	115.2158
652.15	115.0045
652.27	115.2300
652.40	115.8196
652.52	116.1114
652.64	115.6707
652.76	115.7606
652.88	115.8247
653.01	116.0430
653.13	115.7403
653.25	116.0232
653.37	116.0707
653.50	116.1532
653.62	115.6724
653.74	115.6284
653.86	115.8860
653.98	115.8749
654.11	115.7404
654.23	115.6844
654.35	115.8225
654.47	115.9028
654.60	116.2518
654.72	116.0042
654.84	116.3722
654.96	116.4954
655.08	116.3330
655.21	115.9572
655.33	116.2252
655.45	116.2682
655.57	116.0993
655.70	115.9636
655.82	116.0423
655.94	116.4391
656.06	116.3356
656.18	116.3755
656.31	116.6501
656.43	116.7567
656.55	116.4304
656.67	116.3839
656.79	116.6760
656.92	116.7231
657.04	116.4197
657.16	116.5021
657.28	116.4886
657.40	116.4998
657.53	116.3494
657.65	116.2857
657.77	116.3570
657.89	116.6686
658.01	116.4609
658.14	116.5718
658.26	117.1131
658.38	117.0299
658.50	116.5908
658.62	116.7928
658.75	116.7123
658.87	116.7721
658.99	116.7737
659.11	116.7227
659.23	116.7103
659.36	116.7047
659.48	116.4486
659.60	116.4225
659.72	116.7160
659.84	116.6841
659.97	116.3045
660.09	116.1821
660.21	116.4727
660.33	116.8169
660.45	116.7365
660.58	116.9649
660.70	117.3741
660.82	117.0930
660.94	116.6454
661.06	116.5528
661.19	116.8740
661.31	116.6530
661.43	116.4791
661.55	116.4544
661.67	116.7426
661.80	116.5897
661.92	116.5447
662.04	116.6402
662.16	117.0121
662.28	116.8531
662.40	116.7743
662.53	116.9362
662.65	116.8407
662.77	116.8128
662.89	116.9871
663.01	117.0920
663.14	116.8866
663.26	117.2665
663.38	117.0847
663.50	116.6933
663.62	116.6785
663.74	116.8005
663.87	116.4867
663.99	116.1067
664.11	116.3937
664.23	116.6190
664.35	116.5250
664.48	116.8991
664.60	117.5815
664.72	117.7088
664.84	117.4558
664.96	117.6948
665.08	117.4820
665.21	117.6037
665.33	117.4291
665.45	117.4082
665.57	117.3156
665.69	117.3684
665.81	117.1691
665.94	117.0699
666.06	117.0788
666.18	117.3261
666.30	117.1231
666.42	116.9124
666.54	117.0962
666.67	116.9856
666.79	116.6955
666.91	116.9716
667.03	117.0740
667.15	117.0755
667.27	117.4153
667.40	117.1954
667.52	117.0570
667.64	117.2798
667.76	117.1301
667.88	116.8712
668.00	117.0319
668.13	117.1744
668.25	117.1172
668.37	117.1223
668.49	117.5471
668.61	117.8366
668.73	117.8159
668.85	117.6422
668.98	117.9992
669.10	117.7125
669.22	117.2742
669.34	117.4020
669.46	117.3661
669.58	117.0439
669.71	117.2598
669.83	117.5032
669.95	117.3742
670.07	117.3963
670.19	117.6492
670.31	117.5657
670.43	117.4275
670.56	117.3409
670.68	117.5764
670.80	117.0711
670.92	116.9456
671.04	117.2011
671.16	117.3277
671.28	116.9705
671.41	117.3871
671.53	117.7399
671.65	117.3290
671.77	117.0553
671.89	117.3670
672.01	117.6531
672.13	117.3213
672.26	117.8209
672.38	117.8537
672.50	117.5621
672.62	117.0337
672.74	117.0840
672.86	116.8142
672.98	116.9836
673.11	116.8810
673.23	117.1403
673.35	117.1419
673.47	117.4811
673.59	117.3690
673.71	117.2215
673.83	117.1387
673.96	117.3346
674.08	116.9158
674.20	116.8990
674.32	117.3399
674.44	117.4674
674.56	117.0788
674.68	117.0873
674.80	117.3933
674.93	117.4142
675.05	117.1635
675.17	117.2389
675.29	117.4258
675.41	117.2418
675.53	117.2355
675.65	117.2494
675.77	117.4379
675.90	117.5978
676.02	117.2866
676.14	116.9319
676.26	117.1750
676.38	117.1178
676.50	117.0832
676.62	117.7457
676.74	118.0505
676.87	117.7501
676.99	117.6617
677.11	117.6194
677.23	117.2589
677.35	117.4739
677.47	117.7996
677.59	117.7728
677.71	117.7362
677.83	117.6706
677.96	117.5585
678.08	117.5413
678.20	117.7355
678.32	117.7307
678.44	117.5076
678.56	117.3697
678.68	117.5027
678.80	117.4819
678.93	117.4001
679.05	117.5274
679.17	117.6798
679.29	117.5215
679.41	117.4662
679.53	117.4341
679.65	117.5952
679.77	117.5077
679.89	117.2195
680.01	117.4894
680.14	117.7618
680.26	117.6279
680.38	117.5716
680.50	117.7840
680.62	117.5072
680.74	117.3449
680.86	117.5318
680.98	117.2143
681.10	117.2755
681.22	117.4936
681.35	117.7146
681.47	117.1500
681.59	117.5716
681.71	117.6387
681.83	117.2333
681.95	116.6561
682.07	117.1060
682.19	117.0773
682.31	116.6343
682.43	116.9067
682.56	117.2400
682.68	117.3117
682.80	117.1004
682.92	117.3940
683.04	117.3900
683.16	117.0991
683.28	116.9835
683.40	116.9804
683.52	116.9504
683.64	116.8649
683.76	117.0603
683.89	116.8339
684.01	116.8324
684.13	116.7866
684.25	116.6169
684.37	116.6601
684.49	116.6114
684.61	116.7482
684.73	116.9345
684.85	116.8266
684.97	116.9745
685.09	117.6295
685.21	117.4518
685.34	117.4871
685.46	117.7645
685.58	117.4706
685.70	117.4109
685.82	117.6692
685.94	117.6230
686.06	117.6369
686.18	117.8300
686.30	117.5698
686.42	117.6938
686.54	117.3583
686.66	117.3737
686.79	117.1152
686.91	117.0902
687.03	117.1484
687.15	117.5257
687.27	117.2948
687.39	117.5734
687.51	117.6102
687.63	117.2867
687.75	116.8108
687.87	117.1817
687.99	117.0749
688.11	116.9338
688.23	117.1749
688.35	117.6612
688.48	117.6038
688.60	117.5141
688.72	117.6653
688.84	117.6601
688.96	117.7087
689.08	117.2086
689.20	117.3375
689.32	117.5295
689.44	117.6935
689.56	117.5214
689.68	117.9165
689.80	117.9471
689.92	117.8594
690.04	117.6231
690.16	117.5138
690.28	117.8300
690.41	117.6893
690.53	117.2491
690.65	117.0242
690.77	117.1032
690.89	116.8032
691.01	116.9854
691.13	117.1893
691.25	117.3731
691.37	117.6412
691.49	117.2715
691.61	117.1184
691.73	117.4862
691.85	117.6495
691.97	117.1546
692.09	117.4944
692.21	117.3874
692.33	117.4081
692.45	117.2570
692.57	117.1969
692.70	117.3522
692.82	117.5144
692.94	117.1639
693.06	117.2044
693.18	117.6178
693.30	117.1991
693.42	117.2405
693.54	117.4395
693.66	117.6747
693.78	117.5057
693.90	117.8961
694.02	118.1255
694.14	118.0880
694.26	117.6194
694.38	117.5638
694.50	117.5543
694.62	117.3957
694.74	117.2210
694.86	117.3687
694.98	117.3031
695.10	117.3975
695.22	117.3729
695.34	117.5958
695.46	117.6410
695.58	117.9032
695.71	117.8483
695.83	117.5469
695.95	117.6603
696.07	117.8359
696.19	117.9537
696.31	117.6909
696.43	117.9540
696.55	117.9116
696.67	117.8313
696.79	117.7238
696.91	117.5757
697.03	117.6093
697.15	117.6868
697.27	117.3462
697.39	117.3218
697.51	117.5905
697.63	117.1818
697.75	116.9895
697.87	117.4353
697.99	117.4040
698.11	117.4587
698.23	117.8375
698.35	117.8426
698.47	117.9528
698.59	117.6827
698.71	117.8018
698.83	117.9570
698.95	118.0392
699.07	117.7421
699.19	118.0930
699.31	117.9006
699.43	117.8699
699.55	117.8331
699.67	117.9103
699.79	117.8197
699.91	117.8405
700.03	117.6635
700.15	117.5933
700.27	117.8484
700.39	117.8209
700.51	117.9541
700.63	117.9404
700.75	118.2184
700.87	117.9404
700.99	118.2228
701.11	118.0997
701.24	117.8787
701.36	117.5677
701.48	117.6883
701.60	117.1895
701.72	117.3483
701.84	117.9255
701.96	117.9223
702.08	117.6865
702.20	118.0492
702.32	118.1491
702.44	118.1288
702.56	118.2902
702.68	118.1581
702.80	118.1019
702.92	118.0915
703.04	118.0118
703.16	118.2516
703.28	118.5925
703.40	118.5295
703.52	118.3202
703.64	118.1215
703.76	117.8558
703.88	117.8113
704.00	117.7097
704.12	117.8477
704.24	117.8721
704.36	118.0027
704.48	117.8963
704.60	118.0491
704.72	117.6779
704.84	117.7303
704.96	117.7818
705.07	117.9442
705.19	117.7848
705.31	118.2026
705.43	118.0512
705.55	117.8944
705.67	118.0916
705.79	118.4141
705.91	118.2663
706.03	118.3491
706.15	118.5344
706.27	118.2266
706.39	118.1539
706.51	118.2323
706.63	118.2366
706.75	117.9636
706.87	118.0494
706.99	118.2638
707.11	118.2545
707.23	118.2517
707.35	118.1615
707.47	117.9799
707.59	117.7736
707.71	117.6860
707.83	117.8174
707.95	117.7084
708.07	117.8339
708.19	118.2142
708.31	118.3344
708.43	118.2613
708.55	118.5875
708.67	118.5540
708.79	118.1673
708.91	117.9942
709.03	118.1624
709.15	118.1009
709.27	118.1659
709.39	118.0612
709.51	118.1412
709.63	118.2933
709.75	118.2550
709.87	118.3178
709.99	118.5521
710.11	118.8314
710.23	118.3019
710.35	118.3088
710.47	118.3073
710.58	118.0456
710.70	117.7797
710.82	118.0606
710.94	118.0790
711.06	118.1847
711.18	118.0281
711.30	117.9500
711.42	117.9539
711.54	118.3101
711.66	118.1518
711.78	118.1557
711.90	118.4959
712.02	118.8386
712.14	118.3095
712.26	118.0656
712.38	118.4621
712.50	118.3698
712.62	118.0534
712.74	117.8114
712.86	118.1731
712.98	118.0969
713.10	117.8014
713.22	117.6592
713.34	118.0908
713.45	118.0293
713.57	117.8859
713.69	117.9968
713.81	118.2945
713.93	118.7239
714.05	118.5168
714.17	118.3966
714.29	118.6937
714.41	118.5108
714.53	118.1170
714.65	118.4696
714.77	118.3217
714.89	118.1023
715.01	118.1223
715.13	118.0909
715.25	118.0549
715.37	118.2496
715.49	118.2359
715.61	118.0107
715.72	118.1763
715.84	118.1458
715.96	118.1276
716.08	118.1277
716.20	118.4288
716.32	118.3406
716.44	118.2511
716.56	118.0925
716.68	118.0306
716.80	118.0682
716.92	118.1204
717.04	118.1546
717.16	118.6422
717.28	118.5700
717.40	118.3964
717.52	118.3048
717.63	118.2409
717.75	118.1491
717.87	118.3806
717.99	118.2105
718.11	118.1371
718.23	118.0858
718.35	118.2732
718.47	118.1952
718.59	118.4976
718.71	118.4870
718.83	118.8810
718.95	118.6136
719.07	118.6508
719.19	118.6231
719.30	118.6901
719.42	118.4305
719.54	118.4768
719.66	118.6854
719.78	118.6278
719.90	118.7755
720.02	118.6494
720.14	118.6707
720.26	118.4488
720.38	118.7207
720.50	118.4385
720.62	118.8103
720.74	118.6854
720.85	118.3191
720.97	118.1764
721.09	118.2142
721.21	117.9445
721.33	118.1002
721.45	118.3539
721.57	118.6207
721.69	118.4733
721.81	118.1682
721.93	118.2458
722.05	118.5366
722.16	118.1963
722.28	118.2430
722.40	118.2876
722.52	118.4930
722.64	118.3297
722.76	118.2711
722.88	118.7388
723.00	119.0216
723.12	119.1218
723.24	118.8644
723.36	118.7608
723.47	118.5487
723.59	118.4093
723.71	118.2181
723.83	118.4783
723.95	118.4715
724.07	118.1405
724.19	118.4855
724.31	118.6318
724.43	118.8360
724.55	118.4654
724.66	118.9660
724.78	118.9356
724.90	118.5941
725.02	118.2674
725.14	119.1164
725.26	118.9510
725.38	118.7027
725.50	118.5981
725.62	118.8701
725.74	119.0010
725.85	119.1411
725.97	117.9149
726.09	118.2702
726.21	118.3970
726.33	118.1780
726.45	118.0751
726.57	119.4563
726.69	119.0833
726.81	118.8229
726.92	118.5478
727.04	118.5290
727.16	118.5080
727.28	118.7624
727.40	118.3237
727.52	118.2619
727.64	118.2961
727.76	118.5026
727.88	118.4756
727.99	118.8851
728.11	119.0713
728.23	119.1433
728.35	118.8811
728.47	118.7464
728.59	118.9858
728.71	119.0389
728.83	118.7862
728.94	118.6723
729.06	118.7595
729.18	118.5620
729.30	118.3221
729.42	118.3427
729.54	118.5723
729.66	118.4395
729.78	118.3714
729.90	118.8392
730.01	118.9691
730.13	119.1232
730.25	119.1550
730.37	119.3156
730.49	119.0691
730.61	119.0140
730.73	118.8676
730.84	118.8337
730.96	118.9500
731.08	119.0603
731.20	118.5028
731.32	118.5561
731.44	118.6763
731.56	118.2904
731.68	118.1086
731.79	118.8765
731.91	118.6505
732.03	118.7440
732.15	118.9922
732.27	118.8574
732.39	118.8621
732.51	119.2058
732.62	118.8363
732.74	118.8491
732.86	119.1668
732.98	118.9861
733.10	118.3847
733.22	118.9118
733.34	118.7457
733.45	118.6030
733.57	118.5567
733.69	118.9833
733.81	118.7704
733.93	118.7972
734.05	118.8313
734.17	118.9720
734.28	119.2543
734.40	119.3787
734.52	119.1086
734.64	119.1981
734.76	119.4563
734.88	119.1338
735.00	118.6421
735.11	119.2347
735.23	119.4784
735.35	118.9485
735.47	118.9906
735.59	119.3988
735.71	118.9724
735.83	118.5468
735.94	118.8023
736.06	118.7332
736.18	118.6975
736.30	119.2456
736.42	119.4474
736.54	118.8529
736.65	119.0254
736.77	119.1828
736.89	118.2796
737.01	118.5480
737.13	119.2044
737.25	118.9887
737.36	118.8097
737.48	119.4929
737.60	119.1758
737.72	118.8161
737.84	118.9966
737.96	118.9169
738.08	119.1381
738.19	119.0515
738.31	119.4329
738.43	119.3222
738.55	119.6698
738.67	119.4654
738.79	119.4832
738.90	119.7035
739.02	119.9987
739.14	119.6524
739.26	119.3718
739.38	119.7528
739.50	119.6372
739.61	119.5064
739.73	119.5863
739.85	119.5484
739.97	119.6932
740.09	119.5974
740.20	119.4066
740.32	119.8640
740.44	120.2140
740.56	119.9179
740.68	119.8928
740.80	119.7850
740.91	119.3543
741.03	119.3876
741.15	119.0710
741.27	119.0351
741.39	118.9875
741.51	119.1541
741.62	119.1615
741.74	119.4845
741.86	119.5809
741.98	119.8774
742.10	119.7445
742.21	119.8012
742.33	119.3891
742.45	119.4634
742.57	119.4065
742.69	119.6880
742.80	119.6698
742.92	120.1956
743.04	119.8117
743.16	120.1716
743.28	120.0825
743.40	120.1721
743.51	120.0435
743.63	120.3839
743.75	120.0350
743.87	119.8275
743.99	119.5789
744.10	119.6252
744.22	119.3748
744.34	119.2124
744.46	119.5135
744.58	119.2852
744.69	119.1954
744.81	119.7697
744.93	119.7842
745.05	119.4157
745.17	119.8691
745.28	119.9770
745.40	119.7856
745.52	120.0232
745.64	120.4854
745.76	120.7116
745.87	120.4925
745.99	120.5673
746.11	120.6693
746.23	120.6785
746.35	119.8186
746.46	119.8173
746.58	119.5678
746.70	119.5441
746.82	119.6195
746.94	120.3988
747.05	120.7120
747.17	121.0444
747.29	120.4559
747.41	120.5274
747.53	120.4376
747.64	120.1324
747.76	119.6476
747.88	120.2752
748.00	120.2252
748.12	120.2683
748.23	120.3693
748.35	120.5879
748.47	120.7634
748.59	120.7682
748.70	120.7223
748.82	120.8987
748.94	120.8606
749.06	120.8520
749.18	120.4229
749.29	120.3635
749.41	120.4091
749.53	120.4241
749.65	120.5530
749.76	120.9972
749.88	120.7808
750.00	120.4424
750.12	120.4940
750.24	120.3707
750.35	119.8286
750.47	120.1152
750.59	120.0705
750.71	120.5225
750.82	120.5188
750.94	120.8562
751.06	120.9024
751.18	121.2920
751.30	120.8785
751.41	120.8898
751.53	121.0833
751.65	120.7817
751.77	120.5928
751.88	120.9957
752.00	120.5630
752.12	120.4646
752.24	120.6861
752.35	120.6830
752.47	120.1508
752.59	120.7667
752.71	120.3991
752.83	120.6797
752.94	120.6974
753.06	120.8758
753.18	120.6079
753.30	120.9531
753.41	120.5931
753.53	120.6590
753.65	120.9333
753.77	121.0081
753.88	120.9085
754.00	120.8960
754.12	121.2170
754.24	121.6796
754.35	121.4491
754.47	121.4985
754.59	121.7871
754.71	121.7286
754.82	120.9534
754.94	121.2697
755.06	121.3101
755.18	121.3046
755.29	120.9963
755.41	121.1958
755.53	121.1043
755.65	121.0930
755.76	120.5410
755.88	120.5703
756.00	120.8176
756.12	120.7655
756.23	120.3336
756.35	120.7968
756.47	121.3194
756.59	121.0905
756.70	121.3633
756.82	121.6766
756.94	121.6149
757.06	121.3030
757.17	121.5460
757.29	121.1320
757.41	121.3241
757.53	121.3169
757.64	121.1275
757.76	120.8653
757.88	121.0707
758.00	121.3930
758.11	121.3916
758.23	121.5254
758.35	121.4156
758.47	121.4404
758.58	121.0898
758.70	121.3801
758.82	121.2647
758.94	121.7092
759.05	121.8754
759.17	121.5916
759.29	121.3433
759.40	121.4509
759.52	120.9081
759.64	120.4544
759.76	120.7998
759.87	120.9304
759.99	121.3703
760.11	121.7498
760.23	121.9853
760.34	121.9951
760.46	121.9601
760.58	121.4216
760.70	121.3056
760.81	121.4125
760.93	121.5717
761.05	121.9870
761.16	122.2913
761.28	122.5620
761.40	122.1693
761.52	121.9186
761.63	121.5555
761.75	121.5455
761.87	121.3723
761.98	121.8319
762.10	121.8150
762.22	122.1069
762.34	121.8375
762.45	121.1594
762.57	121.2429
762.69	121.2349
762.81	121.2843
762.92	121.2754
763.04	121.4320
763.16	121.2444
763.27	121.2602
763.39	120.6863
763.51	120.8951
763.63	121.7025
763.74	121.7746
763.86	121.9802
763.98	121.9630
764.09	122.0843
764.21	121.6784
764.33	121.6573
764.44	121.4520
764.56	121.6990
764.68	121.7918
764.80	121.4456
764.91	121.6477
765.03	121.8983
765.15	122.1761
765.26	121.7164
765.38	122.1643
765.50	121.9436
765.62	121.7891
765.73	121.7292
765.85	121.8106
765.97	122.0082
766.08	122.2185
766.20	122.2082
766.32	121.7848
766.43	121.9187
766.55	121.7394
766.67	121.6405
766.79	121.8357
766.90	122.2299
767.02	122.5747
767.14	121.8287
767.25	121.7950
767.37	121.7219
767.49	121.2844
767.60	120.7718
767.72	121.5389
767.84	121.7164
767.95	121.5623
768.07	121.7597
768.19	122.0122
768.31	122.0035
768.42	121.8057
768.54	121.5090
768.66	121.4217
768.77	121.5968
768.89	121.6148
769.01	121.4073
769.12	121.7375
769.24	122.0249
769.36	121.9602
769.47	121.5648
769.59	121.7066
769.71	121.7642
769.82	121.9180
769.94	121.6074
770.06	122.1264
770.17	122.1611
770.29	121.8578
770.41	121.7822
770.53	122.0325
770.64	121.7495
770.76	121.6752
770.88	122.5223
770.99	122.5364
771.11	122.6609
771.23	122.5344
771.34	122.3689
771.46	121.9208
771.58	121.7462
771.69	121.4361
771.81	121.9949
771.93	121.8620
772.04	121.8323
772.16	121.7512
772.28	121.9553
772.39	121.4839
772.51	122.1324
772.63	122.2639
772.74	121.7666
772.86	122.0251
772.98	122.3979
773.09	122.2535
773.21	122.2048
773.33	123.1358
773.44	122.6513
773.56	122.2077
773.68	122.3672
773.79	122.3763
773.91	122.2656
774.03	122.2231
774.14	122.6942
774.26	122.9259
774.38	122.7476
774.49	122.3764
774.61	122.6627
774.73	122.4883
774.84	121.9609
774.96	122.3305
775.08	122.5671
775.19	122.4314
775.31	122.5183
775.43	122.8778
775.54	122.2113
775.66	122.4935
775.77	122.3402
775.89	122.0975
776.01	121.7898
776.12	122.5792
776.24	122.4660
776.36	122.3748
776.47	122.2805
776.59	122.5438
776.71	122.3499
776.82	122.1475
776.94	122.2368
777.06	122.6974
777.17	122.8977
777.29	122.7386
777.41	122.8626
777.52	122.8378
777.64	123.0849
777.75	122.9534
777.87	122.6557
777.99	122.3809
778.10	122.6638
778.22	122.3886
778.34	122.0580
778.45	122.3254
778.57	122.4702
778.69	121.9481
778.80	121.8894
778.92	122.1673
779.04	122.2574
779.15	122.1535
779.27	122.4211
779.38	122.5592
779.50	122.4414
779.62	122.8251
779.73	122.4286
779.85	122.8895
779.97	123.1983
780.08	123.0522
780.20	122.6555
780.31	123.3155
780.43	123.4131
780.55	122.7351
780.66	122.4008
780.78	122.8521
780.90	123.1252
781.01	123.0416
781.13	122.8637
781.25	123.5888
781.36	123.2646
781.48	122.3940
781.59	122.0117
781.71	122.6851
781.83	122.9655
781.94	122.4131
782.06	122.9804
782.18	123.8303
782.29	123.3912
782.41	122.7740
782.52	123.3993
782.64	123.6320
782.76	123.6964
782.87	123.3916
782.99	122.7798
783.10	122.8674
783.22	122.5629
783.34	121.6744
783.45	122.1084
783.57	122.4434
783.69	121.7359
783.80	121.5572
783.92	121.9074
784.03	121.8937
784.15	122.3284
784.27	122.8480
784.38	122.9350
784.50	122.9925
784.61	123.2130
784.73	123.3870
784.85	122.9346
784.96	122.8942
785.08	122.6969
785.19	122.7665
785.31	122.5786
785.43	122.4698
785.54	122.4192
785.66	122.0690
785.77	122.2353
785.89	122.1745
786.01	122.6614
786.12	122.5585
786.24	122.9429
786.35	122.7066
786.47	123.0654
786.59	122.9595
786.70	123.4184
786.82	123.2714
786.93	123.1538
787.05	122.8790
787.17	123.2189
787.28	122.8817
787.40	122.9238
787.51	123.2834
787.63	123.0182
787.75	122.4730
787.86	122.7131
787.98	122.8856
788.09	122.2951
788.21	122.4352
788.33	123.2654
788.44	123.1097
788.56	123.4461
788.67	123.6256
788.79	123.9832
788.91	123.9319
789.02	123.5528
789.14	123.0193
789.25	123.2889
789.37	122.9886
789.48	122.8360
789.60	123.1241
789.72	122.9031
789.83	123.1960
789.95	123.6334
790.06	122.9953
790.18	123.0035
790.30	123.1849
790.41	122.6570
790.53	122.3920
790.64	122.6340
790.76	122.8275
790.87	122.7247
790.99	122.6835
791.11	122.6895
791.22	122.4666
791.34	122.3098
791.45	122.6236
791.57	122.9256
791.68	122.2940
791.80	122.4598
791.92	122.8487
792.03	122.9575
792.15	122.8197
792.26	123.0950
792.38	123.1177
792.49	123.0369
792.61	123.2174
792.73	123.7685
792.84	125.6937
792.96	120.9172
793.07	121.3616
793.19	122.2013
793.30	122.4248
793.42	121.4013
793.54	125.3591
793.65	125.0878
793.77	124.3985
793.88	123.5483
794.00	122.9831
794.11	123.6104
794.23	123.7125
794.34	123.9075
794.46	123.0802
794.58	122.6611
794.69	123.6418
794.81	123.8153
794.92	122.1489
795.04	122.5242
795.15	122.6744
795.27	122.4642
795.39	122.2031
795.50	123.4869
795.62	124.0484
795.73	124.2808
795.85	123.4862
795.96	123.6375
796.08	123.6115
796.19	123.8013
796.31	123.8040
796.42	123.8716
796.54	123.8795
796.66	124.2619
796.77	123.3894
796.89	123.8477
797.00	124.4121
797.12	123.7337
797.23	122.9606
797.35	123.3627
797.46	122.6793
797.58	122.6251
797.69	122.8847
797.81	123.2189
797.93	123.4814
798.04	123.2738
798.16	123.4301
798.27	123.6129
798.39	123.7807
798.50	123.9516
798.62	123.6830
798.73	123.5852
798.85	123.4753
798.96	122.8354
799.08	122.5095
799.19	123.3302
799.31	123.7321
799.43	123.7074
799.54	123.5131
799.66	123.7143
799.77	124.2551
799.89	123.6690
800.00	122.9854
800.12	122.9440
800.23	123.2905
800.35	122.8976
800.46	122.3996
800.58	122.8342
800.69	123.4302
800.81	122.5237
800.92	122.5482
801.04	123.4554
801.16	123.8369
801.27	123.7684
801.39	124.2683
801.50	123.6366
801.62	122.9840
801.73	123.2889
801.85	123.1863
801.96	122.7757
802.08	123.7815
802.19	124.1359
802.31	123.1073
802.42	123.0029
802.54	123.8043
802.65	122.8585
802.77	123.5456
802.88	123.4758
803.00	124.0267
803.11	123.9113
803.23	124.0784
803.34	123.6101
803.46	123.8029
803.57	123.9299
803.69	123.3695
803.80	123.8139
803.92	123.7399
804.03	124.0101
804.15	123.5808
804.26	124.3635
804.38	123.9131
804.50	123.4154
804.61	123.3368
804.73	123.9552
804.84	123.5373
804.96	123.7266
805.07	123.9120
805.19	123.8201
805.30	123.3359
805.42	123.1525
805.53	123.2821
805.65	123.7698
805.76	124.0596
805.88	123.9195
805.99	124.2513
806.11	124.0703
806.22	123.7495
806.34	123.8408
806.45	123.5211
806.57	123.7181
806.68	123.4390
806.80	123.0230
806.91	123.2935
807.03	123.7798
807.14	123.5629
807.26	123.4197
807.37	124.2281
807.49	123.5989
807.60	122.9960
807.72	123.1537
807.83	123.8095
807.95	123.3842
808.06	123.1841
808.17	123.7951
808.29	123.2227
808.40	122.5921
808.52	122.0906
808.63	122.7897
808.75	122.3228
808.86	122.5970
808.98	122.8851
809.09	123.6643
809.21	123.3278
809.32	124.4583
809.44	124.3874
809.55	124.8911
809.67	124.1904
809.78	123.6172
809.90	123.0769
810.01	122.2869
810.13	122.2350
810.24	123.0540
810.36	123.8361
810.47	123.3611
810.59	123.5805
810.70	123.6935
810.82	123.6005
810.93	123.7112
811.05	124.1528
811.16	124.3988
811.27	123.1194
811.39	123.2491
811.50	124.0496
811.62	123.6183
811.73	123.6990
811.85	124.4823
811.96	124.3089
812.08	123.7695
812.19	124.1707
812.31	124.9852
812.42	125.0379
812.54	124.3102
812.65	123.8714
812.77	123.7218
812.88	123.2580
813.00	123.9762
813.11	124.7315
813.22	125.1946
813.34	124.3189
813.45	123.4173
813.57	123.2301
813.68	123.8098
813.80	124.0358
813.91	123.6434
814.03	124.8308
814.14	124.1759
814.26	123.1563
814.37	122.9992
814.49	124.2333
814.60	123.5079
814.71	123.9834
814.83	123.9946
814.94	123.0256
815.06	123.5003
815.17	124.5788
815.29	122.8373
815.40	123.1149
815.52	124.1430
815.63	123.2707
815.75	123.4393
815.86	124.8994
815.97	124.4465
816.09	123.6706
816.20	125.6016
816.32	124.7142
816.43	125.1848
816.55	124.1875
816.66	125.0330
816.78	123.8137
816.89	124.6525
817.00	124.9069
817.12	125.3459
817.23	124.7816
817.35	125.7167
817.46	123.5634
817.58	123.4673
817.69	124.3376
817.81	124.3022
817.92	122.9430
818.03	125.2014
818.15	125.1908
818.26	125.1446
818.38	129.0526
818.49	134.7297
818.61	115.0156
818.72	115.9219
818.83	122.1946
818.95	119.7814
819.06	113.1997
819.18	133.9165
819.29	132.3169
819.41	125.5637
819.52	124.2877
819.64	126.5043
819.75	126.2050
819.86	124.4557
819.98	124.6719
820.09	125.4215
820.21	122.7768
820.32	120.7913
820.44	124.1272
820.55	124.3303
820.66	123.9263
820.78	124.8958
820.89	127.0919
821.01	125.1943
821.12	127.0427
821.23	124.1358
821.35	124.2213
821.46	126.1275
821.58	127.5596
821.69	124.2369
821.81	125.7593
821.92	124.5212
822.03	124.6828
822.15	124.3023
822.26	124.3199
822.38	124.6844
822.49	125.7205
822.61	122.8154
822.72	122.2699
822.83	125.8039
822.95	125.0308
823.06	123.1650
823.18	123.4729
823.29	124.8175
823.40	127.0979
823.52	123.3421
823.63	126.3838
823.75	131.5041
823.86	126.9075
823.97	125.2567
824.09	130.6397
824.20	131.8413
824.32	127.5667
824.43	126.7556
824.55	127.6122
824.66	129.4224
824.77	125.0605
824.89	126.1557
825.00	129.1635
825.12	127.9386
825.23	128.9111
825.34	127.2164
825.46	126.3195
825.57	132.6979
825.69	130.8410
825.80	131.2988
825.91	133.4161
826.03	136.9079
826.14	130.0450
826.26	129.9538
826.37	126.4319
826.48	133.8582
826.60	128.7598
826.71	128.8828
826.83	120.1128
826.94	116.7621
827.05	115.2137
827.17	117.8013
827.28	121.9287
827.39	127.5032
827.51	130.6171
827.62	127.5899
827.74	134.1591
827.85	133.0826
827.96	118.2322
828.08	130.9701
828.19	165.7571
828.31	147.3913
828.42	133.4455
828.53	145.1633
828.65	52.5828
828.76	0.0000
828.87	0.0000
828.99	0.0000
