Wavelength (nm)	Reflectance (%)
377.35	0.0000
377.48	0.0000
377.62	0.0000
377.75	0.0000
377.88	0.0000
378.02	22.3810
378.15	200.0000
378.28	175.1000
378.41	0.0000
378.55	200.0000
378.68	137.0000
378.81	200.0000
378.95	200.0000
379.08	200.0000
379.21	200.0000
379.35	55.6129
379.48	165.6279
379.61	190.6483
379.74	129.5020
379.88	45.4512
380.01	76.5567
380.14	102.2688
380.28	52.5367
380.41	46.6442
380.54	132.5130
380.68	124.6516
380.81	75.4785
380.94	60.7641
381.07	87.3910
381.21	91.8596
381.34	34.8368
381.47	58.5703
381.61	118.6998
381.74	99.1812
381.87	20.8889
382.00	90.1264
382.14	116.1331
382.27	53.0534
382.40	32.6714
382.54	85.9392
382.67	95.3128
382.80	62.2895
382.93	89.8035
383.07	100.5387
383.20	92.6614
383.33	117.7855
383.47	76.9068
383.60	74.3148
383.73	101.0864
383.86	102.1095
384.00	61.5110
384.13	97.8025
384.26	109.2925
384.40	80.6393
384.53	63.8649
384.66	77.8738
384.79	92.6259
384.93	80.1299
385.06	58.4640
385.19	61.9191
385.33	69.3544
385.46	48.0501
385.59	61.5716
385.72	99.7741
385.86	91.8407
385.99	86.4632
386.12	88.6289
386.25	59.9232
386.39	66.6489
386.52	82.7388
386.65	77.1365
386.79	57.2644
386.92	92.6697
387.05	100.5803
387.18	73.6193
387.32	63.8836
387.45	102.2581
387.58	91.0493
387.71	72.0281
387.85	78.2371
387.98	78.2114
388.11	80.9214
388.25	70.7043
388.38	60.9278
388.51	74.4954
388.64	99.6335
388.78	102.1872
388.91	77.5294
389.04	103.2772
389.17	94.7316
389.31	58.4309
389.44	47.4301
389.57	78.0098
389.70	71.7072
389.84	77.6860
389.97	82.2419
390.10	88.9941
390.24	93.6424
390.37	72.4317
390.50	69.9565
390.63	75.7240
390.77	68.0586
390.90	69.5165
391.03	86.8402
391.16	78.5888
391.30	80.7930
391.43	94.7427
391.56	72.9893
391.69	77.0416
391.83	95.8069
391.96	73.5477
392.09	63.6348
392.22	91.2453
392.36	93.7174
392.49	63.6186
392.62	67.5808
392.75	76.9564
392.89	73.7124
393.02	79.1414
393.15	68.5325
393.28	90.8260
393.42	81.9768
393.55	80.8531
393.68	68.3564
393.81	90.4598
393.95	88.9567
394.08	84.3917
394.21	75.6520
394.34	74.2878
394.48	77.7055
394.61	68.4080
394.74	75.4122
394.87	74.7730
395.01	96.1039
395.14	82.5544
395.27	73.2400
395.40	80.6437
395.54	85.7805
395.67	61.0672
395.80	72.4236
395.93	87.0830
396.07	87.3440
396.20	83.8045
396.33	87.7299
396.46	91.7079
396.59	99.4122
396.73	81.3841
396.86	81.5273
396.99	98.7757
397.12	115.5804
397.26	65.5821
397.39	68.0241
397.52	84.4783
397.65	77.1785
397.79	47.1899
397.92	91.4234
398.05	104.7785
398.18	82.3039
398.32	71.6644
398.45	79.4622
398.58	83.8301
398.71	78.0310
398.84	77.3720
398.98	77.8403
399.11	83.6747
399.24	81.1692
399.37	81.1997
399.51	86.0485
399.64	86.5854
399.77	82.9132
399.90	86.7625
400.03	76.5828
400.17	70.5857
400.30	74.7702
400.43	74.7937
400.56	68.8852
400.70	84.9419
400.83	91.6789
400.96	90.2259
401.09	84.7222
401.23	86.0957
401.36	79.2719
401.49	79.1887
401.62	82.0059
401.75	89.0141
401.89	83.7699
402.02	82.0197
402.15	82.0448
402.28	83.8052
402.41	87.5011
402.55	77.4042
402.68	74.7673
402.81	82.3923
402.94	87.2474
403.08	77.8514
403.21	84.1297
403.34	96.1185
403.47	87.6548
403.60	75.7744
403.74	86.1790
403.87	91.0745
404.00	89.8708
404.13	96.8385
404.26	96.5349
404.40	91.6330
404.53	97.2551
404.66	84.4841
404.79	78.0923
404.93	91.3627
405.06	89.0394
405.19	80.0251
405.32	83.6305
405.45	92.1738
405.59	93.0467
405.72	70.2551
405.85	81.1265
405.98	93.3665
406.11	87.5711
406.25	72.4864
406.38	95.3039
406.51	93.2402
406.64	88.9006
406.77	85.2733
406.91	94.1889
407.04	96.3604
407.17	94.8227
407.30	83.9383
407.43	83.4038
407.57	88.6784
407.70	90.6758
407.83	92.5023
407.96	90.3779
408.09	100.5814
408.23	102.4920
408.36	85.3594
408.49	81.6588
408.62	99.6796
408.75	93.2385
408.89	86.6645
409.02	93.8196
409.15	93.4541
409.28	96.0874
409.41	84.1523
409.55	83.4555
409.68	97.2230
409.81	94.8948
409.94	84.7265
410.07	100.9905
410.20	102.0565
410.34	95.0208
410.47	92.5751
410.60	96.9211
410.73	91.4410
410.86	92.9475
411.00	93.6201
411.13	96.9416
411.26	90.5666
411.39	92.8893
411.52	91.5901
411.66	95.2300
411.79	94.6680
411.92	100.3150
412.05	100.1779
412.18	95.1013
412.31	88.3907
412.45	97.8661
412.58	97.4746
412.71	89.8606
412.84	98.7345
412.97	106.8385
413.11	99.8657
413.24	90.4111
413.37	102.5895
413.50	104.6920
413.63	97.9525
413.76	96.2482
413.90	106.6647
414.03	102.2518
414.16	97.1072
414.29	89.4984
414.42	95.1636
414.56	93.7696
414.69	94.4351
414.82	92.6821
414.95	101.8692
415.08	95.3369
415.21	103.4550
415.35	100.1338
415.48	96.1237
415.61	106.5068
415.74	110.4637
415.87	89.2644
416.00	94.6472
416.14	106.9115
416.27	99.2542
416.40	96.2244
416.53	109.3917
416.66	113.3087
416.79	104.0267
416.93	102.7455
417.06	106.2054
417.19	107.6101
417.32	107.8095
417.45	103.3168
417.58	103.4426
417.72	102.3793
417.85	95.9085
417.98	94.7164
418.11	102.9988
418.24	102.9446
418.37	104.4294
418.51	102.8621
418.64	99.4954
418.77	105.1589
418.90	105.9564
419.03	98.8111
419.16	109.4818
419.29	116.2874
419.43	98.2260
419.56	96.0482
419.69	107.0959
419.82	104.7676
419.95	99.0368
420.08	103.5308
420.22	103.4250
420.35	99.4334
420.48	104.2146
420.61	98.7354
420.74	108.9334
420.87	114.2544
421.00	110.6453
421.14	99.6061
421.27	104.4234
421.40	103.2687
421.53	102.0422
421.66	105.2301
421.79	109.5227
421.93	113.6982
422.06	108.9268
422.19	105.3981
422.32	105.6934
422.45	109.8360
422.58	102.8829
422.71	100.9930
422.85	106.4754
422.98	108.6934
423.11	106.7561
423.24	109.1841
423.37	111.4789
423.50	108.9580
423.63	108.1381
423.77	105.9082
423.90	102.7454
424.03	104.8580
424.16	108.5896
424.29	108.9376
424.42	111.9717
424.55	113.3077
424.69	112.7441
424.82	113.5598
424.95	108.5264
425.08	107.1718
425.21	109.6179
425.34	108.6297
425.47	106.7312
425.60	110.0878
425.74	109.2857
425.87	106.9707
426.00	109.1391
426.13	108.2455
426.26	108.3284
426.39	104.4396
426.52	107.5898
426.66	112.2810
426.79	104.0647
426.92	100.7274
427.05	107.3832
427.18	107.9673
427.31	103.9035
427.44	108.2025
427.57	113.4135
427.71	110.5828
427.84	103.8362
427.97	101.0260
428.10	106.9414
428.23	112.1423
428.36	104.9438
428.49	103.9142
428.62	107.6091
428.76	109.5233
428.89	102.3874
429.02	103.6416
429.15	110.9754
429.28	110.6601
429.41	106.6733
429.54	104.0165
429.67	110.9582
429.81	113.0613
429.94	108.0962
430.07	101.4952
430.20	106.0000
430.33	106.4653
430.46	103.3058
430.59	108.9763
430.72	113.0910
430.85	113.7039
430.99	109.6924
431.12	106.0785
431.25	107.0017
431.38	110.9676
431.51	104.3695
431.64	104.9817
431.77	110.1668
431.90	110.7721
432.03	107.1604
432.17	109.3969
432.30	112.9333
432.43	110.8774
432.56	107.6690
432.69	105.5761
432.82	108.1214
432.95	107.0652
433.08	107.9441
433.21	107.7570
433.35	111.9645
433.48	110.5849
433.61	111.7491
433.74	108.8043
433.87	111.4289
434.00	110.2005
434.13	109.9247
434.26	107.4081
434.39	111.6719
434.53	110.7259
434.66	112.7680
434.79	108.7586
434.92	112.4741
435.05	111.5362
435.18	105.3648
435.31	102.4645
435.44	107.8016
435.57	109.2859
435.70	107.0281
435.84	105.2389
435.97	108.0020
436.10	109.1953
436.23	104.8016
436.36	104.5218
436.49	110.8233
436.62	107.8649
436.75	105.6976
436.88	106.3662
437.01	110.6073
437.14	111.0337
437.28	108.0607
437.41	105.7907
437.54	109.2420
437.67	111.5317
437.80	103.4040
437.93	104.1712
438.06	110.8183
438.19	109.8279
438.32	104.0891
438.45	107.6932
438.58	109.9160
438.72	108.5285
438.85	106.5552
438.98	106.3960
439.11	109.3205
439.24	109.9800
439.37	105.9011
439.50	107.7191
439.63	110.8007
439.76	112.3424
439.89	112.0201
440.02	110.8627
440.15	110.6528
440.29	112.0304
440.42	109.2731
440.55	105.6950
440.68	111.5896
440.81	112.7080
440.94	106.0203
441.07	106.8923
441.20	112.2924
441.33	109.2738
441.46	106.6457
441.59	110.7749
441.72	111.9353
441.85	109.9013
441.99	106.9247
442.12	106.2282
442.25	106.3617
442.38	108.6558
442.51	108.6887
442.64	110.9264
442.77	112.7074
442.90	113.5435
443.03	111.1331
443.16	108.3525
443.29	110.1011
443.42	108.6967
443.55	108.2700
443.68	108.1951
443.82	111.7086
443.95	108.4463
444.08	108.7339
444.21	106.9518
444.34	106.4736
444.47	105.5852
444.60	108.2407
444.73	106.0508
444.86	106.8278
444.99	108.0815
445.12	110.0169
445.25	108.1709
445.38	109.7689
445.51	111.7460
445.64	114.8255
445.78	108.1013
445.91	106.7785
446.04	110.8849
446.17	107.7425
446.30	103.1004
446.43	109.9799
446.56	112.8288
446.69	107.3448
446.82	106.1405
446.95	107.8919
447.08	108.2215
447.21	106.3615
447.34	107.2420
447.47	109.8167
447.60	107.4265
447.73	106.5412
447.86	108.2951
447.99	108.8511
448.13	110.3375
448.26	110.8615
448.39	108.7062
448.52	109.4291
448.65	109.9660
448.78	106.9608
448.91	109.5623
449.04	109.7374
449.17	108.4187
449.30	109.3821
449.43	107.9813
449.56	106.1968
449.69	109.9613
449.82	108.5916
449.95	106.2178
450.08	109.3265
450.21	110.4335
450.34	106.9696
450.47	109.1630
450.60	112.0110
450.73	113.4084
450.87	112.2093
451.00	107.5855
451.13	108.5813
451.26	106.6131
451.39	104.5717
451.52	104.6824
451.65	110.3130
451.78	111.1123
451.91	109.0645
452.04	107.0648
452.17	109.5439
452.30	110.0042
452.43	105.8179
452.56	110.3111
452.69	109.8946
452.82	107.7029
452.95	108.5676
453.08	107.5974
453.21	106.6275
453.34	108.5915
453.47	105.5855
453.60	103.6574
453.73	106.4887
453.86	104.9361
453.99	105.8937
454.12	108.2400
454.25	109.6217
454.38	108.8140
454.52	109.4183
454.65	109.7709
454.78	109.3046
454.91	108.3370
455.04	109.7050
455.17	106.4829
455.30	106.2597
455.43	108.8384
455.56	107.5039
455.69	105.3366
455.82	109.3621
455.95	108.8879
456.08	107.6709
456.21	109.1685
456.34	109.4681
456.47	108.7469
456.60	108.8565
456.73	106.9342
456.86	106.7421
456.99	108.0596
457.12	106.0474
457.25	104.9427
457.38	105.7809
457.51	105.7945
457.64	105.2435
457.77	106.8018
457.90	107.3391
458.03	107.7308
458.16	106.9121
458.29	107.5743
458.42	108.1675
458.55	109.0341
458.68	107.1878
458.81	103.9984
458.94	105.6390
459.07	107.0221
459.20	105.9144
459.33	105.0029
459.46	108.1771
459.59	108.3001
459.72	104.9307
459.85	104.2935
459.98	107.2654
460.11	108.9885
460.24	105.0840
460.37	105.9568
460.50	107.7264
460.63	107.6323
460.76	104.7090
460.89	105.9004
461.02	107.7844
461.15	107.6411
461.28	105.0903
461.41	107.7870
461.54	108.8514
461.67	106.8849
461.80	106.7971
461.93	107.6778
462.06	106.8523
462.19	107.4651
462.32	106.3623
462.45	106.0909
462.58	106.6524
462.71	107.0520
462.84	105.1220
462.97	105.6640
463.10	104.6622
463.23	105.0369
463.36	105.7386
463.49	106.1231
463.62	107.0174
463.75	107.9758
463.88	109.8994
464.01	105.8953
464.14	106.9547
464.27	108.0885
464.40	107.0097
464.53	105.1963
464.66	106.8247
464.79	107.0381
464.92	105.9454
465.05	106.2113
465.18	106.2819
465.31	107.7739
465.44	107.5615
465.57	104.8813
465.70	105.8996
465.83	107.7536
465.96	106.1140
466.09	105.0088
466.22	108.3774
466.35	108.4476
466.48	106.9068
466.61	107.1275
466.74	106.7956
466.87	105.8729
467.00	104.5211
467.13	105.4881
467.26	107.2431
467.39	108.1045
467.52	106.5694
467.65	107.6107
467.78	106.4795
467.91	105.1717
468.04	105.1469
468.17	107.6649
468.30	107.8707
468.43	107.4713
468.56	106.8625
468.69	108.1536
468.82	107.5635
468.95	107.4589
469.08	108.5172
469.21	107.8907
469.34	105.7126
469.47	106.9078
469.60	107.0412
469.73	106.0677
469.86	109.1938
469.99	110.5542
470.11	108.2737
470.24	107.6465
470.37	108.6664
470.50	107.7566
470.63	106.4423
470.76	105.7936
470.89	107.3080
471.02	107.4957
471.15	104.8851
471.28	104.2399
471.41	106.2579
471.54	106.3503
471.67	104.2573
471.80	105.5035
471.93	107.4563
472.06	108.3733
472.19	105.4030
472.32	105.8936
472.45	106.7330
472.58	106.2436
472.71	105.3056
472.84	107.5754
472.97	107.3152
473.10	107.9994
473.23	106.8193
473.36	106.1016
473.49	105.5431
473.62	106.0216
473.74	105.5989
473.87	107.5397
474.00	107.7195
474.13	107.2006
474.26	107.7547
474.39	107.3715
474.52	105.7976
474.65	107.0685
474.78	108.0308
474.91	106.2468
475.04	106.0730
475.17	107.0530
475.30	105.5019
475.43	105.1479
475.56	106.6684
475.69	107.5735
475.82	106.5160
475.95	107.4532
476.08	107.6155
476.21	107.5417
476.34	105.8499
476.46	106.9491
476.59	106.6343
476.72	106.8812
476.85	105.8047
476.98	106.0793
477.11	106.5815
477.24	106.1581
477.37	105.1518
477.50	106.3314
477.63	106.9034
477.76	106.3075
477.89	105.9519
478.02	105.9791
478.15	106.0377
478.28	106.6483
478.41	105.4874
478.54	106.2886
478.66	106.7473
478.79	106.7440
478.92	106.0378
479.05	107.1278
479.18	106.5321
479.31	106.8731
479.44	106.6525
479.57	106.5501
479.70	107.1305
479.83	107.8018
479.96	105.8564
480.09	105.3217
480.22	105.6638
480.35	104.9889
480.48	104.8246
480.60	105.6315
480.73	106.2933
480.86	106.4243
480.99	106.2473
481.12	105.2934
481.25	106.6148
481.38	106.6921
481.51	105.8130
481.64	105.8445
481.77	106.8161
481.90	106.3218
482.03	105.3797
482.16	106.0437
482.29	106.1940
482.41	106.5338
482.54	106.6730
482.67	107.2482
482.80	107.7568
482.93	107.2169
483.06	106.4893
483.19	106.5815
483.32	106.8894
483.45	106.0657
483.58	105.9122
483.71	105.8258
483.84	105.5423
483.97	105.3621
484.09	105.5391
484.22	106.3176
484.35	106.4895
484.48	106.1791
484.61	106.1187
484.74	106.3175
484.87	105.9284
485.00	106.2042
485.13	106.2117
485.26	106.6749
485.39	105.7463
485.52	105.5077
485.64	105.0142
485.77	105.7072
485.90	105.4447
486.03	106.5883
486.16	106.6584
486.29	106.6850
486.42	106.4201
486.55	105.8264
486.68	105.1526
486.81	105.7141
486.94	105.6304
487.06	104.9453
487.19	105.3582
487.32	105.7876
487.45	105.3664
487.58	105.9824
487.71	106.3150
487.84	106.0073
487.97	105.7747
488.10	106.2523
488.23	105.5323
488.35	105.8649
488.48	106.3018
488.61	106.5064
488.74	106.2030
488.87	105.8897
489.00	105.8609
489.13	106.0315
489.26	105.8366
489.39	105.6332
489.52	106.2578
489.64	105.9325
489.77	105.5845
489.90	105.3329
490.03	105.4901
490.16	105.6542
490.29	105.2245
490.42	105.5459
490.55	105.6468
490.68	106.1826
490.81	105.4297
490.93	105.8789
491.06	105.7613
491.19	105.5470
491.32	105.2681
491.45	105.6648
491.58	105.7777
491.71	105.9459
491.84	105.5733
491.97	105.1859
492.09	105.6067
492.22	105.2938
492.35	105.0901
492.48	105.9454
492.61	105.7651
492.74	105.5231
492.87	105.9570
493.00	105.5497
493.12	105.2741
493.25	105.8196
493.38	106.1902
493.51	105.7498
493.64	105.9225
493.77	105.9690
493.90	105.2681
494.03	104.7085
494.16	105.1387
494.28	105.7121
494.41	105.2110
494.54	105.5358
494.67	106.3517
494.80	106.1395
494.93	105.7435
495.06	106.3862
495.19	106.7426
495.31	106.3631
495.44	106.1884
495.57	106.3658
495.70	106.6203
495.83	106.5860
495.96	105.8153
496.09	105.5598
496.22	105.9549
496.34	105.6235
496.47	104.9695
496.60	105.1443
496.73	105.8132
496.86	105.0067
496.99	105.1652
497.12	105.5184
497.24	105.6131
497.37	105.5018
497.50	105.9350
497.63	105.2369
497.76	104.8780
497.89	105.7881
498.02	105.7583
498.15	105.4085
498.27	105.6018
498.40	106.0239
498.53	105.4018
498.66	105.8191
498.79	105.8998
498.92	106.0217
499.05	106.1604
499.17	105.5669
499.30	105.1768
499.43	105.7426
499.56	105.7501
499.69	105.5770
499.82	106.2485
499.95	106.3260
500.07	105.8891
500.20	105.1483
500.33	105.2133
500.46	105.4426
500.59	105.2374
500.72	104.9066
500.85	105.4494
500.97	105.8787
501.10	105.6687
501.23	105.0952
501.36	105.1579
501.49	105.6316
501.62	104.7315
501.75	104.9619
501.87	105.4150
502.00	105.3956
502.13	105.3181
502.26	105.6510
502.39	105.5819
502.52	105.6246
502.64	105.3941
502.77	105.3008
502.90	105.7461
503.03	105.6034
503.16	105.1822
503.29	105.5953
503.42	105.8047
503.54	105.6476
503.67	104.9733
503.80	105.9001
503.93	106.0044
504.06	105.3248
504.19	105.1812
504.31	105.4773
504.44	104.9143
504.57	105.0955
504.70	105.3312
504.83	105.3160
504.96	105.5288
505.08	104.9984
505.21	104.6021
505.34	104.8385
505.47	104.8844
505.60	104.9418
505.73	104.8703
505.85	105.1731
505.98	105.4442
506.11	105.3435
506.24	105.1355
506.37	105.3955
506.50	105.3566
506.62	105.0530
506.75	104.6950
506.88	105.0755
507.01	105.3599
507.14	105.2926
507.27	105.3235
507.39	105.8717
507.52	105.2188
507.65	105.4731
507.78	105.1050
507.91	104.8488
508.04	104.5541
508.16	104.9185
508.29	105.2008
508.42	105.6880
508.55	105.2589
508.68	105.3894
508.81	105.4560
508.93	104.8734
509.06	104.4885
509.19	105.1704
509.32	104.8330
509.45	104.8485
509.57	104.9298
509.70	105.1198
509.83	104.9246
509.96	105.2069
510.09	105.1289
510.22	105.3002
510.34	104.8133
510.47	104.9066
510.60	104.7822
510.73	104.6714
510.86	104.6016
510.98	104.8021
511.11	104.6360
511.24	104.8369
511.37	104.9001
511.50	104.7387
511.63	104.9049
511.75	104.8555
511.88	104.6594
512.01	104.5457
512.14	104.5745
512.27	104.5434
512.39	104.4938
512.52	104.5076
512.65	104.5948
512.78	104.4357
512.91	104.2847
513.03	104.2227
513.16	104.3516
513.29	104.1904
513.42	104.0247
513.55	104.4134
513.67	104.7768
513.80	104.4228
513.93	104.2484
514.06	104.6061
514.19	104.1889
514.31	104.2456
514.44	104.2920
514.57	104.1595
514.70	104.3515
514.83	104.7018
514.95	104.4286
515.08	104.5307
515.21	104.8552
515.34	104.8035
515.47	104.5397
515.59	104.5113
515.72	104.1151
515.85	104.2635
515.98	103.9236
516.11	103.7690
516.23	103.9971
516.36	104.6190
516.49	104.3115
516.62	104.1462
516.75	104.7674
516.87	104.5900
517.00	103.8131
517.13	103.9073
517.26	104.6310
517.39	104.0699
517.51	103.5155
517.64	104.1867
517.77	104.0100
517.90	103.4957
518.02	103.7403
518.15	103.9089
518.28	103.5142
518.41	103.4840
518.54	103.4982
518.66	103.5242
518.79	103.7892
518.92	103.8486
519.05	103.7152
519.18	103.7323
519.30	103.5730
519.43	103.6194
519.56	103.4678
519.69	103.9280
519.81	104.1430
519.94	103.9972
520.07	103.8343
520.20	103.9297
520.33	103.7910
520.45	103.4873
520.58	103.3303
520.71	103.3800
520.84	103.6665
520.96	103.8123
521.09	103.6652
521.22	103.7225
521.35	103.9768
521.48	103.9314
521.60	103.5624
521.73	103.1211
521.86	103.4052
521.99	103.4337
522.11	103.1440
522.24	103.4812
522.37	103.6615
522.50	103.9089
522.62	103.6219
522.75	103.8193
522.88	103.5391
523.01	103.7278
523.14	103.1085
523.26	103.4915
523.39	103.1696
523.52	103.3171
523.65	103.5421
523.77	103.6980
523.90	103.2467
524.03	103.4492
524.16	103.4652
524.28	103.3521
524.41	103.6780
524.54	103.7896
524.67	103.4927
524.79	103.0804
524.92	103.3025
525.05	102.9193
525.18	103.2149
525.31	102.9561
525.43	103.5806
525.56	104.0215
525.69	104.0252
525.82	103.5497
525.94	104.1772
526.07	103.9953
526.20	103.0852
526.33	103.0078
526.45	103.1283
526.58	103.0989
526.71	102.7288
526.84	103.1052
526.96	103.0661
527.09	103.1150
527.22	103.2907
527.35	103.1430
527.47	103.2460
527.60	103.2953
527.73	103.0984
527.86	102.8920
527.98	103.3762
528.11	102.9552
528.24	103.2628
528.37	103.3096
528.49	102.9169
528.62	103.2038
528.75	103.4750
528.88	103.2149
529.00	103.4935
529.13	103.9222
529.26	103.1530
529.39	102.9018
529.51	103.2527
529.64	103.1388
529.77	102.8620
529.90	103.2183
530.02	103.6622
530.15	103.5069
530.28	103.4802
530.40	103.5649
530.53	103.7050
530.66	103.1760
530.79	103.0964
530.91	102.9525
531.04	103.0496
531.17	102.8232
531.30	103.0928
531.42	102.5821
531.55	102.9248
531.68	103.1417
531.81	103.2073
531.93	103.4750
532.06	103.9176
532.19	103.6101
532.31	103.3330
532.44	103.6100
532.57	103.3802
532.70	103.2243
532.82	103.0281
532.95	102.8440
533.08	102.6921
533.21	102.8339
533.33	103.0227
533.46	102.7749
533.59	103.1630
533.71	103.3012
533.84	103.2348
533.97	103.1488
534.10	103.5306
534.22	103.4635
534.35	102.9474
534.48	102.8979
534.61	103.0580
534.73	102.9949
534.86	102.6849
534.99	103.0442
535.11	103.1193
535.24	103.2046
535.37	103.5355
535.50	103.6251
535.62	103.4323
535.75	103.4318
535.88	103.2257
536.00	102.9001
536.13	103.0028
536.26	103.2548
536.39	102.8877
536.51	102.9737
536.64	103.2775
536.77	103.2393
536.89	102.9847
537.02	103.2880
537.15	103.1562
537.28	103.1298
537.40	102.9269
537.53	102.9718
537.66	103.1108
537.78	103.4277
537.91	103.4754
538.04	104.1683
538.17	104.0689
538.29	103.5756
538.42	103.3271
538.55	103.3590
538.67	102.9201
538.80	103.4169
538.93	103.5877
539.05	103.5624
539.18	103.4041
539.31	103.7313
539.44	103.4212
539.56	103.6742
539.69	104.0733
539.82	104.2900
539.94	103.7038
540.07	103.7313
540.20	103.6574
540.32	103.2207
540.45	102.7189
540.58	103.2830
540.71	103.5269
540.83	103.6188
540.96	103.4344
541.09	103.5167
541.21	103.5405
541.34	103.4442
541.47	103.2543
541.59	103.1881
541.72	103.4255
541.85	103.5457
541.98	103.4744
542.10	103.1327
542.23	103.4843
542.36	103.5679
542.48	103.4160
542.61	103.3200
542.74	103.8706
542.86	104.1113
542.99	104.0246
543.12	103.9744
543.24	103.8710
543.37	103.7218
543.50	103.4157
543.62	103.5415
543.75	103.5412
543.88	103.5291
544.01	103.3827
544.13	103.4885
544.26	103.3470
544.39	103.0876
544.51	103.0952
544.64	103.3973
544.77	103.2380
544.89	103.4128
545.02	103.3981
545.15	103.1765
545.27	103.1257
545.40	103.2054
545.53	103.2868
545.65	103.7260
545.78	104.1682
545.91	104.0516
546.03	104.3159
546.16	104.1755
546.29	103.8695
546.41	103.9442
546.54	103.7891
546.67	103.3433
546.79	103.5364
546.92	103.4661
547.05	103.3024
547.17	103.4225
547.30	103.8108
547.43	103.5037
547.56	103.6308
547.68	103.5839
547.81	103.5672
547.94	103.4112
548.06	103.1470
548.19	103.1473
548.32	103.3108
548.44	103.2072
548.57	102.9456
548.70	103.1591
548.82	103.2168
548.95	103.3108
549.08	103.0920
549.20	103.2855
549.33	103.4315
549.45	103.5734
549.58	103.2139
549.71	103.8031
549.83	103.7726
549.96	103.5940
550.09	103.2252
550.21	103.5243
550.34	103.2996
550.47	103.6958
550.59	103.7222
550.72	103.4095
550.85	103.3297
550.97	103.4976
551.10	102.9306
551.23	102.8931
551.35	103.4378
551.48	103.5652
551.61	103.1285
551.73	103.2252
551.86	103.3442
551.99	102.9390
552.11	102.5740
552.24	102.9363
552.37	103.1168
552.49	103.1104
552.62	103.4279
552.75	103.7131
552.87	103.5973
553.00	103.5730
553.12	103.3604
553.25	103.0181
553.38	102.7486
553.50	102.8206
553.63	102.5796
553.76	102.6652
553.88	102.9559
554.01	102.9272
554.14	102.6339
554.26	103.0112
554.39	103.0895
554.52	103.1119
554.64	103.1434
554.77	103.2212
554.89	102.9338
555.02	102.8530
555.15	102.7323
555.27	102.5308
555.40	102.7747
555.53	103.0693
555.65	102.9548
555.78	102.8086
555.91	103.2159
556.03	103.2127
556.16	102.8275
556.29	102.6446
556.41	102.9537
556.54	102.9013
556.66	102.3241
556.79	102.4004
556.92	102.9514
557.04	102.7234
557.17	102.5063
557.30	102.9152
557.42	102.8049
557.55	102.5631
557.67	102.5269
557.80	102.5368
557.93	102.7694
558.05	102.8743
558.18	102.6850
558.31	102.5585
558.43	102.6369
558.56	102.5492
558.68	102.5157
558.81	102.3747
558.94	102.7101
559.06	102.6944
559.19	102.5315
559.32	102.4396
559.44	102.6338
559.57	102.4228
559.69	102.1895
559.82	102.1243
559.95	102.4128
560.07	102.4248
560.20	102.2236
560.33	102.4861
560.45	102.1411
560.58	101.9995
560.70	101.9857
560.83	102.0753
560.96	101.7633
561.08	102.2438
561.21	102.4400
561.33	102.1334
561.46	102.2951
561.59	102.5563
561.71	102.4668
561.84	102.1676
561.97	102.6918
562.09	102.7166
562.22	102.5393
562.34	102.5536
562.47	102.6742
562.60	102.5464
562.72	102.3130
562.85	102.3878
562.97	102.2938
563.10	102.2109
563.23	101.9741
563.35	101.9836
563.48	101.8170
563.60	101.9709
563.73	102.0289
563.86	102.1378
563.98	102.3400
564.11	102.2814
564.23	102.1805
564.36	102.0300
564.49	102.1542
564.61	102.1125
564.74	102.1609
564.86	102.1074
564.99	102.0852
565.12	102.1020
565.24	102.0884
565.37	102.1495
565.49	102.2289
565.62	102.6148
565.75	102.0595
565.87	101.9897
566.00	102.3827
566.12	102.1180
566.25	101.9328
566.38	102.2302
566.50	102.2009
566.63	102.0172
566.75	102.3086
566.88	102.2418
567.01	102.4626
567.13	102.7328
567.26	102.4934
567.38	102.5202
567.51	102.4543
567.64	102.3058
567.76	102.1779
567.89	102.4022
568.01	102.2070
568.14	102.2410
568.26	102.3373
568.39	102.2207
568.52	102.1462
568.64	102.1985
568.77	102.1090
568.89	102.1550
569.02	102.1880
569.15	102.0097
569.27	101.8122
569.40	101.8473
569.52	101.8383
569.65	101.9450
569.77	102.1934
569.90	102.1566
570.03	102.3896
570.15	102.4155
570.28	102.6426
570.40	102.6401
570.53	102.8577
570.66	102.8016
570.78	102.8635
570.91	102.5613
571.03	102.5073
571.16	102.6438
571.28	102.5326
571.41	102.5647
571.54	102.5263
571.66	102.5039
571.79	102.5029
571.91	102.4372
572.04	102.0782
572.16	102.1627
572.29	102.1778
572.42	102.1818
572.54	102.1457
572.67	102.4507
572.79	102.5020
572.92	102.5429
573.04	102.6943
573.17	103.0434
573.29	102.6964
573.42	102.5549
573.55	102.6314
573.67	102.6251
573.80	102.6301
573.92	102.8261
574.05	102.9510
574.17	102.9835
574.30	103.0387
574.43	102.8325
574.55	103.0434
574.68	103.0796
574.80	103.1445
574.93	103.0649
575.05	103.1318
575.18	102.9404
575.30	102.7792
575.43	102.7982
575.56	102.7434
575.68	102.8347
575.81	102.7584
575.93	102.8623
576.06	102.9452
576.18	103.0439
576.31	102.7065
576.43	102.9320
576.56	103.0956
576.69	103.1535
576.81	103.1934
576.94	103.5253
577.06	103.6025
577.19	103.5126
577.31	103.0905
577.44	103.0468
577.56	102.8846
577.69	102.9651
577.82	103.3196
577.94	103.3946
578.07	103.1841
578.19	103.5928
578.32	103.6196
578.44	103.3669
578.57	103.7366
578.69	103.9016
578.82	103.6187
578.94	103.5560
579.07	103.5599
579.19	103.4272
579.32	103.6408
579.45	103.9236
579.57	103.9079
579.70	104.1041
579.82	104.0054
579.95	104.0058
580.07	103.7837
580.20	103.8256
580.32	103.7144
580.45	103.8271
580.57	103.6331
580.70	103.5413
580.82	103.8977
580.95	103.6415
581.08	103.7091
581.20	103.7260
581.33	103.8882
581.45	103.3631
581.58	103.9038
581.70	103.8245
581.83	103.8221
581.95	103.8947
582.08	104.1657
582.20	103.9544
582.33	104.0694
582.45	104.0292
582.58	103.9944
582.70	103.9721
582.83	103.8932
582.95	103.8412
583.08	103.8549
583.21	103.9513
583.33	104.2792
583.46	104.3577
583.58	104.3054
583.71	104.5498
583.83	104.6011
583.96	104.3352
584.08	104.3064
584.21	104.5384
584.33	104.6579
584.46	104.4181
584.58	104.2402
584.71	104.3947
584.83	104.4698
584.96	104.2391
585.08	104.2733
585.21	104.5462
585.33	104.4924
585.46	104.5601
585.58	104.7571
585.71	104.7333
585.83	104.7954
585.96	104.6626
586.08	104.3986
586.21	104.5149
586.33	104.6601
586.46	104.6300
586.59	104.7130
586.71	104.7426
586.84	104.6860
586.96	104.7603
587.09	104.3747
587.21	104.4062
587.34	104.5952
587.46	104.3864
587.59	104.4277
587.71	104.9907
587.84	105.1680
587.96	104.9280
588.09	104.9901
588.21	104.9120
588.34	104.7480
588.46	104.7298
588.59	104.9884
588.71	105.0617
588.84	104.8037
588.96	104.7827
589.09	104.9301
589.21	104.9880
589.34	104.9213
589.46	105.2076
589.59	105.5039
589.71	105.5077
589.84	105.4036
589.96	105.4778
590.09	105.5488
590.21	105.3051
590.34	105.3694
590.46	105.3681
590.59	105.2016
590.71	105.4043
590.84	105.2531
590.96	105.0361
591.09	105.1624
591.21	105.5882
591.34	105.2349
591.46	105.3898
591.59	105.3594
591.71	105.5649
591.83	105.4155
591.96	105.7517
592.08	105.8983
592.21	106.1405
592.33	106.1354
592.46	106.1006
592.58	105.9092
592.71	105.8540
592.83	105.5168
592.96	105.3558
593.08	105.4942
593.21	105.6359
593.33	105.6638
593.46	105.7395
593.58	105.6593
593.71	105.7849
593.83	105.5218
593.96	105.4131
594.08	105.5926
594.21	105.5565
594.33	105.5185
594.46	105.8657
594.58	105.9578
594.71	105.9067
594.83	105.5342
594.96	105.3049
595.08	105.3244
595.20	105.4779
595.33	105.0627
595.45	105.4975
595.58	105.8203
595.70	105.8531
595.83	105.6562
595.95	106.1442
596.08	106.3309
596.20	106.1554
596.33	106.1262
596.45	106.3666
596.58	106.2120
596.70	106.0807
596.83	105.9734
596.95	106.1042
597.08	105.9531
597.20	106.0079
597.32	105.9753
597.45	106.0808
597.57	106.0226
597.70	105.9851
597.82	106.1228
597.95	106.1255
598.07	106.0907
598.20	106.0997
598.32	106.0400
598.45	105.8876
598.57	106.0288
598.70	106.1611
598.82	105.9297
598.94	105.9352
599.07	106.0426
599.19	106.2543
599.32	105.9248
599.44	106.0303
599.57	106.1723
599.69	106.3734
599.82	105.8787
599.94	106.1159
600.07	106.3692
600.19	106.5268
600.31	106.0878
600.44	106.2373
600.56	106.3047
600.69	106.1607
600.81	106.0419
600.94	106.2059
601.06	106.1007
601.19	106.2644
601.31	106.0037
601.44	105.9156
601.56	105.9688
601.68	106.1892
601.81	105.7958
601.93	106.1770
602.06	106.4540
602.18	106.3315
602.31	106.1902
602.43	106.4297
602.56	106.3705
602.68	106.0972
602.80	106.4267
602.93	106.5170
603.05	106.4392
603.18	106.4801
603.30	106.6593
603.43	106.4584
603.55	106.4510
603.68	106.4643
603.80	106.2762
603.92	106.1186
604.05	106.3465
604.17	106.3670
604.30	106.3289
604.42	106.2516
604.55	106.3541
604.67	106.2547
604.79	106.2341
604.92	106.4096
605.04	106.6229
605.17	106.5829
605.29	106.3223
605.42	106.4276
605.54	106.2458
605.66	106.0856
605.79	105.9207
605.91	106.1615
606.04	105.9611
606.16	105.9943
606.29	106.2773
606.41	106.5746
606.53	106.5047
606.66	106.8091
606.78	106.9695
606.91	106.7938
607.03	106.7505
607.16	106.6456
607.28	106.3419
607.40	106.2931
607.53	106.3807
607.65	106.4536
607.78	106.4467
607.90	106.7933
608.03	106.8093
608.15	106.9509
608.27	106.9390
608.40	107.1963
608.52	106.8381
608.65	107.0033
608.77	106.6688
608.89	106.3213
609.02	106.3361
609.14	106.4120
609.27	106.3409
609.39	106.8879
609.52	107.2440
609.64	107.3023
609.76	107.2914
609.89	106.9740
610.01	106.6985
610.14	106.6710
610.26	106.4049
610.38	106.7277
610.51	107.0592
610.63	106.9479
610.76	106.9257
610.88	106.8447
611.01	106.6817
611.13	106.7388
611.25	106.8792
611.38	107.0423
611.50	107.3104
611.63	107.4820
611.75	107.4096
611.87	107.1783
612.00	107.0015
612.12	107.2158
612.25	107.1145
612.37	107.1046
612.49	107.0202
612.62	107.1252
612.74	106.9317
612.87	107.0514
612.99	106.9116
613.11	106.9310
613.24	106.8793
613.36	106.9176
613.49	106.8640
613.61	106.9271
613.73	107.3254
613.86	107.4453
613.98	107.4073
614.11	107.2606
614.23	107.2756
614.35	107.2263
614.48	107.1871
614.60	107.2074
614.72	107.4689
614.85	107.6791
614.97	107.7670
615.10	107.7024
615.22	107.7073
615.34	107.7086
615.47	107.6148
615.59	107.4888
615.72	107.7879
615.84	107.5266
615.96	107.4913
616.09	107.6891
616.21	107.6121
616.34	107.3589
616.46	107.7378
616.58	107.6842
616.71	107.4252
616.83	107.3609
616.95	107.4000
617.08	107.4145
617.20	107.5496
617.33	107.4429
617.45	107.6605
617.57	107.7123
617.70	107.5475
617.82	107.3456
617.95	107.5958
618.07	107.4845
618.19	107.3067
618.32	107.4928
618.44	107.6939
618.56	107.8445
618.69	107.6517
618.81	107.8309
618.94	107.7329
619.06	107.5744
619.18	107.5185
619.31	107.6466
619.43	107.5002
619.55	107.8790
619.68	108.1707
619.80	107.7835
619.92	107.7762
620.05	108.1265
620.17	108.1721
620.30	107.9704
620.42	108.3175
620.54	108.6094
620.67	108.5010
620.79	107.9792
620.91	107.9320
621.04	107.9077
621.16	108.0150
621.29	107.9886
621.41	108.2052
621.53	108.5263
621.66	108.4079
621.78	107.9617
621.90	108.1509
622.03	108.2863
622.15	108.1640
622.27	108.4763
622.40	108.6955
622.52	108.8241
622.64	108.8291
622.77	108.5494
622.89	108.4753
623.02	108.5528
623.14	108.2721
623.26	108.0497
623.39	108.4019
623.51	108.5663
623.63	108.4138
623.76	108.3860
623.88	108.5893
624.00	108.4122
624.13	108.2364
624.25	108.2523
624.37	108.0810
624.50	108.3278
624.62	108.6766
624.75	108.5644
624.87	108.9121
624.99	109.2674
625.12	108.6293
625.24	108.4168
625.36	108.6165
625.49	108.3583
625.61	108.1085
625.73	108.7666
625.86	108.8701
625.98	108.9885
626.10	109.0446
626.23	109.2212
626.35	109.1690
626.47	109.1562
626.60	109.0735
626.72	109.0971
626.84	109.2594
626.97	109.3387
627.09	109.0954
627.21	109.0002
627.34	109.3421
627.46	109.3832
627.58	109.0827
627.71	109.7736
627.83	109.7671
627.95	109.2378
628.08	109.1881
628.20	109.5710
628.32	109.2927
628.45	109.4616
628.57	109.8324
628.69	109.7532
628.82	109.8294
628.94	109.8674
629.06	109.8554
629.19	110.0746
629.31	110.1578
629.43	109.9925
629.56	109.7942
629.68	110.0170
629.80	110.0451
629.93	110.2061
630.05	110.2495
630.17	110.6875
630.30	110.5832
630.42	110.6432
630.54	110.8110
630.67	110.5947
630.79	110.4786
630.91	110.4978
631.04	110.4512
631.16	110.3756
631.28	110.7676
631.41	110.5919
631.53	110.4870
631.65	110.2989
631.78	110.1852
631.90	110.3724
632.02	110.3589
632.14	110.6203
632.27	110.8667
632.39	110.6632
632.51	110.4816
632.64	110.7630
632.76	110.8065
632.88	110.9235
633.01	111.2352
633.13	110.9172
633.25	111.1129
633.38	111.2336
633.50	111.1941
633.62	111.3869
633.75	111.6416
633.87	111.4696
633.99	111.5313
634.11	111.3366
634.24	111.2573
634.36	111.3864
634.48	111.1629
634.61	111.2455
634.73	111.5575
634.85	111.7256
634.98	111.8913
635.10	111.9053
635.22	111.7528
635.35	112.0253
635.47	111.9818
635.59	111.8284
635.71	111.9970
635.84	111.9329
635.96	111.8035
636.08	111.7213
636.21	111.6950
636.33	112.0303
636.45	112.3370
636.58	111.9997
636.70	112.2404
636.82	112.7403
636.94	112.5524
637.07	112.3453
637.19	112.6218
637.31	112.7327
637.44	112.4718
637.56	112.6268
637.68	112.8231
637.81	113.3123
637.93	113.0506
638.05	112.6211
638.17	112.6311
638.30	112.6477
638.42	112.1905
638.54	112.3586
638.67	112.7542
638.79	112.9414
638.91	112.9300
639.03	113.0307
639.16	112.9802
639.28	113.0586
639.40	112.6110
639.53	112.6645
639.65	112.7813
639.77	112.7211
639.89	112.6789
640.02	113.0872
640.14	112.7511
640.26	112.7104
640.39	112.9130
640.51	112.7970
640.63	112.6185
640.75	113.0360
640.88	113.0246
641.00	112.5971
641.12	113.0622
641.24	113.5375
641.37	113.1601
641.49	113.3183
641.61	113.6983
641.74	113.6199
641.86	113.1267
641.98	113.4523
642.10	113.4505
642.23	113.5409
642.35	113.3352
642.47	113.4409
642.60	113.6007
642.72	113.5696
642.84	113.5257
642.96	113.6025
643.09	113.8337
643.21	113.8478
643.33	113.8372
643.45	113.7284
643.58	113.9559
643.70	113.8454
643.82	113.8113
643.94	113.8962
644.07	114.0508
644.19	113.8305
644.31	113.9751
644.44	113.9536
644.56	113.9255
644.68	114.0123
644.80	114.1668
644.93	114.0008
645.05	114.0848
645.17	114.1763
645.29	114.2108
645.42	114.0283
645.54	114.1270
645.66	114.1992
645.78	114.1101
645.91	113.9001
646.03	114.1763
646.15	114.2356
646.27	114.1745
646.40	114.0347
646.52	114.3367
646.64	114.4454
646.76	114.2870
646.89	114.2159
647.01	114.2506
647.13	114.5066
647.25	114.4206
647.38	114.4698
647.50	114.8250
647.62	115.1957
647.74	114.7399
647.87	114.4569
647.99	114.5931
648.11	114.5738
648.23	114.3359
648.36	114.6207
648.48	115.0107
648.60	115.3003
648.72	114.8228
648.85	114.9776
648.97	115.0469
649.09	115.0850
649.21	114.9141
649.34	115.2593
649.46	115.3395
649.58	115.4215
649.70	115.1054
649.83	114.9888
649.95	114.9306
650.07	114.7932
650.19	114.5643
650.32	114.7021
650.44	114.8525
650.56	114.9257
650.68	115.0874
650.81	115.0697
650.93	115.2233
651.05	115.1447
651.17	115.2604
651.29	115.2838
651.42	115.6237
651.54	115.8824
651.66	115.9043
651.78	115.4324
651.91	115.4314
652.03	115.4292
652.15	115.2019
652.27	115.4668
652.40	116.0457
652.52	116.3046
652.64	115.8272
652.76	115.9118
652.88	115.8790
653.01	116.0321
653.13	115.6746
653.25	115.9094
653.37	115.8735
653.50	115.9644
653.62	115.4894
653.74	115.5180
653.86	115.8773
653.98	115.9810
654.11	115.9569
654.23	115.9860
654.35	116.1213
654.47	116.1537
654.60	116.4868
654.72	116.1951
654.84	116.5547
654.96	116.7168
655.08	116.6371
655.21	116.2648
655.33	116.5490
655.45	116.5834
655.57	116.3858
655.70	116.1290
655.82	116.1441
655.94	116.4506
656.06	116.2425
656.18	116.2379
656.31	116.5584
656.43	116.7197
656.55	116.4724
656.67	116.5391
656.79	116.8910
656.92	116.9832
657.04	116.6826
657.16	116.7452
657.28	116.7170
657.40	116.6981
657.53	116.5176
657.65	116.4537
657.77	116.5365
657.89	116.8409
658.01	116.6550
658.14	116.7570
658.26	117.2484
658.38	117.1196
658.50	116.6537
658.62	116.8217
658.75	116.7528
658.87	116.9259
658.99	117.0745
659.11	117.1658
659.23	117.2876
659.36	117.3998
659.48	117.1752
659.60	117.1157
659.72	117.2836
659.84	117.1211
659.97	116.5918
660.09	116.3402
660.21	116.5425
660.33	116.8615
660.45	116.7162
660.58	116.8766
660.70	117.1646
660.82	116.7104
660.94	116.1664
661.06	116.0682
661.19	116.4253
661.31	116.3293
661.43	116.3239
661.55	116.4264
661.67	116.8008
661.80	116.6800
661.92	116.6380
662.04	116.7306
662.16	117.0332
662.28	116.8230
662.40	116.7167
662.53	116.8437
662.65	116.7505
662.77	116.8020
662.89	117.0508
663.01	117.2262
663.14	117.0532
663.26	117.4009
663.38	117.1613
663.50	116.6910
663.62	116.6135
663.74	116.7289
663.87	116.4477
663.99	116.0781
664.11	116.3939
664.23	116.6284
664.35	116.5009
664.48	116.8328
664.60	117.5113
664.72	117.6331
664.84	117.3884
664.96	117.6864
665.08	117.5611
665.21	117.7700
665.33	117.6616
665.45	117.7284
665.57	117.7081
665.69	117.8018
665.81	117.6150
665.94	117.5266
666.06	117.5299
666.18	117.7733
666.30	117.5303
666.42	117.2672
666.54	117.4152
666.67	117.2107
666.79	116.8023
666.91	117.0227
667.03	117.0740
667.15	117.0478
667.27	117.4123
667.40	117.2338
667.52	117.1297
667.64	117.4321
667.76	117.2982
667.88	117.0372
668.00	117.1505
668.13	117.1855
668.25	116.9613
668.37	116.8457
668.49	117.1831
668.61	117.4747
668.73	117.5119
668.85	117.4469
668.98	117.9059
669.10	117.7132
669.22	117.3087
669.34	117.4503
669.46	117.3941
669.58	117.0683
669.71	117.2132
669.83	117.3794
669.95	117.1998
670.07	117.1999
670.19	117.4345
670.31	117.4279
670.43	117.3627
670.56	117.3115
670.68	117.5382
670.80	117.0095
670.92	116.8366
671.04	117.0764
671.16	117.2344
671.28	116.9800
671.41	117.4673
671.53	117.8634
671.65	117.4810
671.77	117.2026
671.89	117.4320
672.01	117.6497
672.13	117.2533
672.26	117.6933
672.38	117.6999
672.50	117.4300
672.62	116.9473
672.74	117.0597
672.86	116.8874
672.98	117.1222
673.11	117.1024
673.23	117.4377
673.35	117.4963
673.47	117.8189
673.59	117.6460
673.71	117.4095
673.83	117.2342
673.96	117.3628
674.08	116.9254
674.20	116.9499
674.32	117.3956
674.44	117.5195
674.56	117.0994
674.68	117.0540
674.80	117.2949
674.93	117.3154
675.05	117.0891
675.17	117.1964
675.29	117.3982
675.41	117.2161
675.53	117.1698
675.65	117.1176
675.77	117.2397
675.90	117.3926
676.02	117.1083
676.14	116.7688
676.26	117.0334
676.38	117.0196
676.50	116.9893
676.62	117.6287
676.74	117.9670
676.87	117.6911
676.99	117.6349
677.11	117.6140
677.23	117.3004
677.35	117.5000
677.47	117.8153
677.59	117.7208
677.71	117.6349
677.83	117.4824
677.96	117.3553
678.08	117.3715
678.20	117.6388
678.32	117.7212
678.44	117.6042
678.56	117.4914
678.68	117.5823
678.80	117.5369
678.93	117.4067
679.05	117.4717
679.17	117.6510
679.29	117.5599
679.41	117.5077
679.53	117.5066
679.65	117.7049
679.77	117.5853
679.89	117.2651
680.01	117.5839
680.14	117.8854
680.26	117.8283
680.38	117.8691
680.50	118.1307
680.62	117.8511
680.74	117.7204
680.86	117.8627
680.98	117.5185
681.10	117.5789
681.22	117.7640
681.35	117.8513
681.47	117.1854
681.59	117.4574
681.71	117.3920
681.83	116.9379
681.95	116.4158
682.07	116.9528
682.19	117.0502
682.31	116.7211
682.43	117.0371
682.56	117.3639
682.68	117.3764
682.80	117.0978
682.92	117.3458
683.04	117.3355
683.16	117.0832
683.28	117.0180
683.40	117.0826
683.52	117.1172
683.64	117.0998
683.76	117.3262
683.89	117.1384
684.01	117.1397
684.13	117.0697
684.25	116.8730
684.37	116.9084
684.49	116.8565
684.61	116.9951
684.73	117.1993
684.85	117.0744
684.97	117.1590
685.09	117.7435
685.21	117.5154
685.34	117.4697
685.46	117.6865
685.58	117.3788
685.70	117.3043
685.82	117.5442
685.94	117.5392
686.06	117.5888
686.18	117.7661
686.30	117.4775
686.42	117.5592
686.54	117.1422
686.66	117.0980
686.79	116.8565
686.91	116.8885
687.03	117.0479
687.15	117.5422
687.27	117.4336
687.39	117.7893
687.51	117.9029
687.63	117.6048
687.75	117.1142
687.87	117.4049
687.99	117.2100
688.11	116.9426
688.23	117.0809
688.35	117.5031
688.48	117.4899
688.60	117.5142
688.72	117.8102
688.84	117.9282
688.96	118.0891
689.08	117.5746
689.20	117.5937
689.32	117.6494
689.44	117.7066
689.56	117.4204
689.68	117.7786
689.80	117.8141
689.92	117.7332
690.04	117.4953
690.16	117.4128
690.28	117.7457
690.41	117.6380
690.53	117.2343
690.65	117.0497
690.77	117.1493
690.89	116.8878
691.01	117.0794
691.13	117.3181
691.25	117.5139
691.37	117.7958
691.49	117.3993
691.61	117.1804
691.73	117.4388
691.85	117.4800
691.97	116.8400
692.09	117.0687
692.21	116.9517
692.33	116.9985
692.45	116.9197
692.57	117.0054
692.70	117.3079
692.82	117.5918
692.94	117.3590
693.06	117.4771
693.18	117.9278
693.30	117.4920
693.42	117.4864
693.54	117.6433
693.66	117.8692
693.78	117.6421
693.90	118.0593
694.02	118.2741
694.14	118.1654
694.26	117.6256
694.38	117.5673
694.50	117.4969
694.62	117.3609
694.74	117.2629
694.86	117.4541
694.98	117.3914
695.10	117.4891
695.22	117.3975
695.34	117.5721
695.46	117.5820
695.58	117.8079
695.71	117.7316
695.83	117.4579
695.95	117.5264
696.07	117.6884
696.19	117.8087
696.31	117.5334
696.43	117.7809
696.55	117.8234
696.67	117.7859
696.79	117.6979
696.91	117.5774
697.03	117.6502
697.15	117.7127
697.27	117.3867
697.39	117.4139
697.51	117.7532
697.63	117.3798
697.75	117.1793
697.87	117.5971
697.99	117.5134
698.11	117.5018
698.23	117.8392
698.35	117.8488
698.47	117.9534
698.59	117.6854
698.71	117.8181
698.83	117.9572
698.95	118.0187
699.07	117.7380
699.19	118.1222
699.31	117.9576
699.43	117.9940
699.55	118.0329
699.67	118.1671
699.79	118.1255
699.91	118.1780
700.03	117.9777
700.15	117.8620
700.27	118.0622
700.39	117.9566
700.51	118.0200
700.63	117.9626
700.75	118.2231
700.87	117.9347
700.99	118.2392
701.11	118.1483
701.24	117.9795
701.36	117.6931
701.48	117.8359
701.60	117.3093
701.72	117.3976
701.84	117.8818
701.96	117.8158
702.08	117.5312
702.20	117.8627
702.32	117.9760
702.44	117.9560
702.56	118.1215
702.68	117.9899
702.80	117.9496
702.92	117.9638
703.04	118.0066
703.16	118.3429
703.28	118.7694
703.40	118.8092
703.52	118.6419
703.64	118.3361
703.76	117.9555
703.88	117.8164
704.00	117.5794
704.12	117.6434
704.24	117.7202
704.36	117.9180
704.48	117.8452
704.60	118.0793
704.72	117.7613
704.84	117.7773
704.96	117.8235
705.07	118.0286
705.19	117.8882
705.31	118.3493
705.43	118.2714
705.55	118.1144
705.67	118.2307
705.79	118.4297
705.91	118.1055
706.03	118.0177
706.15	118.0910
706.27	117.7532
706.39	117.7445
706.51	117.9633
706.63	118.1183
706.75	117.9626
706.87	118.1502
706.99	118.3893
707.11	118.3746
707.23	118.3451
707.35	118.2410
707.47	118.0176
707.59	117.7804
707.71	117.6294
707.83	117.7006
707.95	117.5586
708.07	117.6642
708.19	118.0333
708.31	118.1889
708.43	118.1999
708.55	118.6011
708.67	118.6631
708.79	118.3646
708.91	118.2219
709.03	118.3578
709.15	118.2315
709.27	118.1949
709.39	118.0162
709.51	118.0784
709.63	118.2231
709.75	118.1792
709.87	118.2479
709.99	118.4531
710.11	118.6993
710.23	118.1701
710.35	118.2074
710.47	118.2271
710.58	118.0051
710.70	117.7276
710.82	117.9608
710.94	117.8783
711.06	117.9161
711.18	117.6932
711.30	117.5956
711.42	117.5872
711.54	117.9971
711.66	117.8813
711.78	117.9372
711.90	118.2972
712.02	118.6370
712.14	118.1084
712.26	117.8869
712.38	118.3067
712.50	118.2677
712.62	118.0990
712.74	117.9617
712.86	118.3595
712.98	118.2974
713.10	117.9471
713.22	117.6519
713.34	117.9372
713.45	117.8228
713.57	117.6582
713.69	117.8702
713.81	118.2903
713.93	118.8480
714.05	118.7143
714.17	118.6458
714.29	118.9335
714.41	118.7712
714.53	118.4022
714.65	118.7627
714.77	118.5951
714.89	118.3524
715.01	118.3289
715.13	118.2674
715.25	118.2264
715.37	118.4281
715.49	118.3909
715.61	118.1532
715.72	118.2879
715.84	118.2250
715.96	118.1713
716.08	118.1810
716.20	118.4870
716.32	118.3769
716.44	118.2451
716.56	118.0686
716.68	117.9728
716.80	118.0051
716.92	118.0885
717.04	118.1588
717.16	118.6392
717.28	118.5426
717.40	118.2932
717.52	118.1411
717.63	118.0463
717.75	117.9986
717.87	118.3005
717.99	118.2143
718.11	118.1759
718.23	118.1571
718.35	118.3642
718.47	118.3024
718.59	118.6413
718.71	118.6639
718.83	119.0574
718.95	118.7589
719.07	118.7390
719.19	118.6102
719.30	118.6420
719.42	118.3476
719.54	118.3309
719.66	118.5203
719.78	118.4822
719.90	118.6375
720.02	118.5747
720.14	118.7070
720.26	118.5314
720.38	118.8498
720.50	118.5852
720.62	118.9657
720.74	118.8186
720.85	118.4920
720.97	118.3693
721.09	118.3826
721.21	118.0571
721.33	118.1949
721.45	118.4297
721.57	118.6990
721.69	118.6270
721.81	118.3986
721.93	118.5530
722.05	118.8921
722.16	118.5686
722.28	118.5733
722.40	118.5603
722.52	118.6820
722.64	118.4387
722.76	118.3399
722.88	118.8079
723.00	119.0983
723.12	119.1721
723.24	118.9061
723.36	118.7839
723.47	118.5748
723.59	118.4801
723.71	118.3692
723.83	118.6870
723.95	118.6862
724.07	118.3002
724.19	118.5356
724.31	118.5739
724.43	118.6495
724.55	118.2155
724.66	118.7310
724.78	118.7436
724.90	118.4588
725.02	118.2488
725.14	119.2148
725.26	119.0810
725.38	118.8083
725.50	118.6560
725.62	118.8470
725.74	118.8307
725.85	118.8915
725.97	117.7013
726.09	118.1028
726.21	118.2919
726.33	118.1721
726.45	118.1327
726.57	119.4925
726.69	119.0978
726.81	118.7842
726.92	118.4766
727.04	118.4086
727.16	118.3308
727.28	118.5291
727.40	118.0543
727.52	117.9412
727.64	117.9685
727.76	118.2025
727.88	118.2075
727.99	118.6744
728.11	118.9288
728.23	119.0502
728.35	118.8768
728.47	118.8274
728.59	119.0859
728.71	119.1574
728.83	118.9398
728.94	118.7765
729.06	118.7952
729.18	118.5790
729.30	118.3157
729.42	118.2937
729.54	118.5023
729.66	118.3523
729.78	118.2477
729.90	118.6341
730.01	118.6871
730.13	118.8260
730.25	118.8490
730.37	119.0227
730.49	118.8295
730.61	118.8176
730.73	118.6970
730.84	118.7032
730.96	118.8801
731.08	119.1146
731.20	118.6946
731.32	118.8240
731.44	119.0090
731.56	118.6395
731.68	118.3657
731.79	118.9888
731.91	118.6737
732.03	118.6884
732.15	118.8665
732.27	118.7234
732.39	118.8334
732.51	119.2309
732.62	118.9038
732.74	118.9647
732.86	119.3019
732.98	119.0505
733.10	118.3977
733.22	118.8988
733.34	118.7014
733.45	118.5555
733.57	118.5161
733.69	118.9479
733.81	118.7238
733.93	118.7271
734.05	118.6778
734.17	118.7480
734.28	118.9982
734.40	119.0632
734.52	118.7832
734.64	118.8971
734.76	119.1905
734.88	118.8570
735.00	118.3793
735.11	118.9702
735.23	119.2875
735.35	118.8425
735.47	118.9721
735.59	119.4474
735.71	119.0282
735.83	118.4969
735.94	118.5939
736.06	118.4307
736.18	118.3343
736.30	118.8923
736.42	119.1568
736.54	118.6690
736.65	118.9002
736.77	119.1260
736.89	118.2617
737.01	118.5680
737.13	119.2647
737.25	119.0811
737.36	118.8841
737.48	119.5698
737.60	119.2295
737.72	118.8194
737.84	118.9849
737.96	118.8851
738.08	119.0537
738.19	118.9868
738.31	119.4227
738.43	119.3525
738.55	119.8085
738.67	119.7005
738.79	119.7358
738.90	119.9233
739.02	120.1293
739.14	119.6306
739.26	119.2282
739.38	119.5217
739.50	119.3840
739.61	119.2853
739.73	119.4435
739.85	119.4811
739.97	119.7059
740.09	119.6347
740.20	119.4814
740.32	119.9405
740.44	120.2753
740.56	119.9360
740.68	119.8948
740.80	119.7041
740.91	119.1929
741.03	119.1856
741.15	118.8517
741.27	118.7831
741.39	118.7946
741.51	119.0226
741.62	119.0676
741.74	119.4304
741.86	119.5760
741.98	119.8642
742.10	119.7750
742.21	119.8481
742.33	119.4259
742.45	119.5119
742.57	119.4704
742.69	119.7095
742.80	119.7175
742.92	120.2600
743.04	119.8573
743.16	120.1695
743.28	120.0351
743.40	120.0425
743.51	119.8856
743.63	120.2157
743.75	119.9427
743.87	119.8396
743.99	119.6872
744.10	119.8171
744.22	119.6462
744.34	119.4764
744.46	119.7428
744.58	119.4803
744.69	119.3430
744.81	119.8572
744.93	119.8713
745.05	119.5102
745.17	119.9493
745.28	120.0291
745.40	119.8134
745.52	119.9887
745.64	120.3891
745.76	120.5870
745.87	120.3672
745.99	120.4301
746.11	120.5219
746.23	120.5503
746.35	119.7136
746.46	119.7058
746.58	119.4825
746.70	119.4806
746.82	119.5434
746.94	120.3169
747.05	120.6647
747.17	121.0587
747.29	120.5980
747.41	120.7896
747.53	120.7416
747.64	120.4574
747.76	119.9035
747.88	120.3928
748.00	120.2452
748.12	120.2685
748.23	120.3448
748.35	120.6051
748.47	120.8359
748.59	120.8171
748.70	120.7050
748.82	120.7918
748.94	120.6397
749.06	120.5519
749.18	120.1472
749.29	120.1902
749.41	120.4082
749.53	120.5972
749.65	120.8396
749.76	121.3302
749.88	121.0965
750.00	120.6707
750.12	120.6200
750.24	120.4414
750.35	119.9103
750.47	120.2180
750.59	120.2328
750.71	120.7840
750.82	120.8362
750.94	121.1254
751.06	121.0543
751.18	121.2629
751.30	120.6322
751.41	120.4818
751.53	120.5810
751.65	120.3168
751.77	120.2498
751.88	120.8339
752.00	120.5632
752.12	120.5966
752.24	120.8711
752.35	120.8836
752.47	120.3139
752.59	120.8489
752.71	120.4334
752.83	120.6779
752.94	120.6429
753.06	120.7781
753.18	120.5044
753.30	120.8271
753.41	120.4546
753.53	120.5453
753.65	120.8307
753.77	120.9112
753.88	120.7861
754.00	120.7209
754.12	120.9725
754.24	121.3929
754.35	121.1411
754.47	121.2119
754.59	121.5439
754.71	121.5266
754.82	120.7590
754.94	121.0347
755.06	121.0577
755.18	121.0694
755.29	120.7804
755.41	121.0374
755.53	121.0559
755.65	121.1322
755.76	120.6135
755.88	120.6463
756.00	120.9018
756.12	120.8820
756.23	120.4337
756.35	120.8777
756.47	121.4124
756.59	121.1524
756.70	121.3393
756.82	121.6459
756.94	121.6028
757.06	121.3656
757.17	121.6853
757.29	121.3501
757.41	121.5495
757.53	121.5483
757.64	121.2775
757.76	120.9977
757.88	121.1901
758.00	121.5429
758.11	121.5606
758.23	121.7561
758.35	121.6329
758.47	121.6225
758.58	121.2115
758.70	121.4419
758.82	121.1940
758.94	121.5855
759.05	121.7327
759.17	121.4590
759.29	121.2622
759.40	121.5441
759.52	121.1009
759.64	120.7364
759.76	121.1551
759.87	121.3168
759.99	121.6893
760.11	122.0024
760.23	122.1800
760.34	122.1132
760.46	122.0373
760.58	121.4528
760.70	121.2839
760.81	121.3166
760.93	121.4362
761.05	121.7349
761.16	121.9696
761.28	122.2433
761.40	121.8757
761.52	121.6209
761.63	121.3265
761.75	121.4089
761.87	121.3005
761.98	121.8217
762.10	121.9042
762.22	122.2590
762.34	121.9932
762.45	121.2899
762.57	121.3143
762.69	121.1922
762.81	121.1727
762.92	121.1932
763.04	121.3787
763.16	121.2734
763.27	121.4217
763.39	120.9319
763.51	121.0684
763.63	121.8163
763.74	121.7968
763.86	121.8595
763.98	121.6976
764.09	121.8093
764.21	121.4302
764.33	121.4461
764.44	121.3142
764.56	121.6417
764.68	121.7406
764.80	121.3181
764.91	121.4462
765.03	121.6062
765.15	121.8241
765.26	121.3242
765.38	121.7957
765.50	121.5729
765.62	121.4343
765.73	121.4052
765.85	121.5606
765.97	121.8377
766.08	122.1616
766.20	122.2931
766.32	121.9498
766.43	122.0899
766.55	121.9408
766.67	121.8761
766.79	122.0060
766.90	122.3555
767.02	122.6565
767.14	121.7876
767.25	121.5897
767.37	121.4629
767.49	120.9650
767.60	120.4875
767.72	121.3123
767.84	121.5995
767.95	121.4980
768.07	121.7976
768.19	122.0705
768.31	122.0943
768.42	121.8916
768.54	121.6047
768.66	121.4776
768.77	121.6253
768.89	121.5920
769.01	121.3629
769.12	121.6646
769.24	121.9603
769.36	121.9126
769.47	121.5257
769.59	121.6035
769.71	121.5984
769.82	121.6459
769.94	121.2485
770.06	121.7266
770.17	121.7992
770.29	121.5683
770.41	121.6054
770.53	121.9527
770.64	121.8002
770.76	121.7997
770.88	122.6446
770.99	122.6057
771.11	122.6465
771.23	122.3863
771.34	122.1524
771.46	121.6926
771.58	121.5409
771.69	121.3165
771.81	121.9462
771.93	121.8798
772.04	121.9195
772.16	121.9136
772.28	122.1596
772.39	121.7212
772.51	122.3448
772.63	122.4403
772.74	121.8716
772.86	122.0253
772.98	122.2998
773.09	122.0983
773.21	121.9518
773.33	122.8727
773.44	122.4337
773.56	122.0567
773.68	122.2696
773.79	122.3839
773.91	122.2811
774.03	122.1700
774.14	122.5835
774.26	122.7538
774.38	122.5335
774.49	122.1792
774.61	122.5532
774.73	122.4519
774.84	121.9524
774.96	122.2769
775.08	122.4186
775.19	122.1912
775.31	122.1893
775.43	122.5154
775.54	121.8931
775.66	122.2854
775.77	122.1909
775.89	122.0303
776.01	121.8845
776.12	122.7587
776.24	122.6637
776.36	122.6186
776.47	122.5658
776.59	122.7608
776.71	122.5916
776.82	122.4713
776.94	122.6669
777.06	123.1583
777.17	123.3912
777.29	123.1185
777.41	123.0553
777.52	122.7925
777.64	122.8626
777.75	122.6322
777.87	122.4270
777.99	122.2996
778.10	122.7673
778.22	122.6888
778.34	122.4790
778.45	122.7570
778.57	122.9164
778.69	122.3945
778.80	122.2958
778.92	122.5420
779.04	122.5443
779.15	122.2959
779.27	122.4711
779.38	122.5400
779.50	122.3568
779.62	122.7685
779.73	122.4477
779.85	122.8959
779.97	123.1540
780.08	122.9391
780.20	122.4474
780.31	123.0403
780.43	123.1063
780.55	122.4209
780.66	122.1344
780.78	122.6382
780.90	122.9243
781.01	122.8658
781.13	122.7405
781.25	123.5003
781.36	123.2706
781.48	122.4887
781.59	122.1741
781.71	122.9463
781.83	123.2656
781.94	122.6594
782.06	123.1894
782.18	124.0242
782.29	123.4586
782.41	122.8157
782.52	123.3999
782.64	123.5827
782.76	123.6728
782.87	123.4721
782.99	122.9320
783.10	123.1444
783.22	122.9694
783.34	122.0780
783.45	122.5108
783.57	122.7840
783.69	122.0422
783.80	121.8016
783.92	122.1108
784.03	122.0505
784.15	122.4930
784.27	122.9326
784.38	123.0036
784.50	123.0738
784.61	123.2555
784.73	123.3765
784.85	122.9696
784.96	122.9146
785.08	122.6966
785.19	122.8326
785.31	122.6931
785.43	122.5563
785.54	122.4966
785.66	122.1240
785.77	122.1605
785.89	121.9883
786.01	122.3894
786.12	122.2018
786.24	122.5526
786.35	122.3886
786.47	122.8011
786.59	122.7646
786.70	123.3011
786.82	123.1919
786.93	123.0563
787.05	122.8303
787.17	123.1740
787.28	122.7992
787.40	122.8556
787.51	123.2838
787.63	123.0517
787.75	122.6557
787.86	123.1083
787.98	123.4497
788.09	122.9797
788.21	123.2629
788.33	124.1232
788.44	123.9158
788.56	124.1722
788.67	124.2307
788.79	124.3765
788.91	124.1528
789.02	123.6939
789.14	123.1056
789.25	123.3625
789.37	123.1140
789.48	122.9800
789.60	123.2133
789.72	122.9626
789.83	123.2054
789.95	123.6190
790.06	122.9827
790.18	123.0334
790.30	123.2086
790.41	122.7532
790.53	122.5216
790.64	122.8023
790.76	123.0269
790.87	123.0089
790.99	122.9733
791.11	122.9441
791.22	122.6899
791.34	122.5273
791.45	122.7768
791.57	123.0666
791.68	122.4602
791.80	122.6315
791.92	122.9656
792.03	123.1094
792.15	122.9445
792.26	123.1823
792.38	123.1452
792.49	123.0452
792.61	123.0730
792.73	123.4931
792.84	125.3804
792.96	120.6089
793.07	121.0703
793.19	121.9960
793.30	122.2892
793.42	121.2065
793.54	125.1283
793.65	124.8067
793.77	124.0702
793.88	123.2758
794.00	122.8185
794.11	123.4866
794.23	123.6157
794.34	123.8709
794.46	122.9827
794.58	122.5415
794.69	123.5668
794.81	123.7924
794.92	122.1418
795.04	122.5896
795.15	122.7460
795.27	122.5198
795.39	122.2464
795.50	123.5328
795.62	124.0534
795.73	124.2885
795.85	123.4399
795.96	123.5267
796.08	123.4367
796.19	123.6317
796.31	123.6425
796.42	123.7873
796.54	123.8741
796.66	124.3037
796.77	123.4282
796.89	123.8504
797.00	124.3029
797.12	123.5067
797.23	122.6424
797.35	123.0288
797.46	122.3612
797.58	122.3929
797.69	122.7963
797.81	123.3100
797.93	123.6334
798.04	123.4646
798.16	123.6504
798.27	123.7812
798.39	123.8667
798.50	123.9870
798.62	123.6512
798.73	123.5088
798.85	123.4207
798.96	122.7440
799.08	122.4025
799.19	123.2645
799.31	123.6822
799.43	123.6368
799.54	123.5123
799.66	123.8593
799.77	124.5086
799.89	123.9583
800.00	123.3236
800.12	123.3102
800.23	123.5692
800.35	123.1320
800.46	122.6918
800.58	123.2262
800.69	123.8319
800.81	122.9464
800.92	122.8735
801.04	123.6175
801.16	123.7548
801.27	123.5947
801.39	124.0525
801.50	123.5027
801.62	123.0011
801.73	123.5057
801.85	123.5338
801.96	123.2511
802.08	124.3290
802.19	124.7045
802.31	123.6235
802.42	123.4533
802.54	124.1965
802.65	123.2169
802.77	123.8721
802.88	123.8918
803.00	124.4959
803.11	124.3917
803.23	124.5787
803.34	124.1477
803.46	124.2415
803.57	124.2586
803.69	123.5232
803.80	123.7249
803.92	123.3636
804.03	123.4568
804.15	122.9308
804.26	123.7551
804.38	123.4183
804.50	123.1274
804.61	123.2620
804.73	124.0777
804.84	123.8054
804.96	124.1188
805.07	124.3591
805.19	124.2842
805.30	123.8391
805.42	123.7248
805.53	123.9278
805.65	124.4392
805.76	124.6551
805.88	124.3561
805.99	124.5162
806.11	124.0551
806.22	123.5408
806.34	123.5774
806.45	123.2986
806.57	123.4864
806.68	123.3991
806.80	123.1836
806.91	123.6027
807.03	124.1871
807.14	124.0622
807.26	123.8938
807.37	124.6388
807.49	123.8897
807.60	123.1390
807.72	123.1858
807.83	123.7727
807.95	123.2691
808.06	123.0957
808.17	123.7799
808.29	123.3164
808.40	122.7672
808.52	122.3672
808.63	123.1043
808.75	122.6821
808.86	122.9181
808.98	123.1284
809.09	123.8002
809.21	123.4252
809.32	124.4708
809.44	124.3726
809.55	124.9126
809.67	124.3091
809.78	123.7791
809.90	123.2887
810.01	122.4780
810.13	122.3880
810.24	123.1023
810.36	123.7531
810.47	123.1039
810.59	123.2190
810.70	123.2669
810.82	123.1453
810.93	123.2961
811.05	123.9005
811.16	124.3554
811.27	123.2360
811.39	123.5761
811.50	124.4563
811.62	123.9880
811.73	123.9645
811.85	124.5767
811.96	124.1429
812.08	123.5241
812.19	123.9666
812.31	124.8279
812.42	125.0318
812.54	124.4625
812.65	124.0445
812.77	123.7294
812.88	123.0896
813.00	123.6227
813.11	124.2385
813.22	124.6423
813.34	123.9238
813.45	123.2071
813.57	123.2234
813.68	123.9716
813.80	124.2636
813.91	123.9198
814.03	125.0923
814.14	124.3582
814.26	123.2689
814.37	123.1616
814.49	124.3315
814.60	123.6630
814.71	124.2332
814.83	124.4330
814.94	123.6078
815.06	124.2362
815.17	125.3956
815.29	123.7266
815.40	123.9180
815.52	124.7968
815.63	123.8024
815.75	123.7779
815.86	125.0627
815.97	124.4639
816.09	123.6319
816.20	125.5361
816.32	124.7086
816.43	125.2248
816.55	124.3190
816.66	125.2401
816.78	124.0520
816.89	124.9057
817.00	125.1084
817.12	125.5033
817.23	124.9929
817.35	126.0477
817.46	123.9549
817.58	124.0189
817.69	125.0353
817.81	124.8648
817.92	123.2670
818.03	125.3593
818.15	125.1487
818.26	124.9491
818.38	129.0338
818.49	134.9475
818.61	115.4547
818.72	116.6182
818.83	123.1180
818.95	120.6951
819.06	114.1504
819.18	134.8968
819.29	133.4068
819.41	126.6822
819.52	125.4741
819.64	127.6568
819.75	127.3275
819.86	125.4487
819.98	125.6566
820.09	126.3604
820.21	123.7311
820.32	121.7424
820.44	125.0300
820.55	125.1307
820.66	124.7380
820.78	125.7458
820.89	127.9182
821.01	125.9004
821.12	127.4050
821.23	124.0139
821.35	123.5097
821.46	124.8962
821.58	126.1211
821.69	122.7950
821.81	124.4317
821.92	123.4185
822.03	123.6765
822.15	123.2904
822.26	123.4465
822.38	123.9311
822.49	125.0168
822.61	122.3838
822.72	122.0880
822.83	125.7345
822.95	125.1209
823.06	123.7802
823.18	124.4103
823.29	125.9177
823.40	128.3364
823.52	124.4143
823.63	126.6267
823.75	131.0546
823.86	126.0317
823.97	124.0061
824.09	129.3057
824.20	130.8025
824.32	126.6395
824.43	125.6418
824.55	126.2009
824.66	127.5069
824.77	122.6817
824.89	123.5155
825.00	126.4700
825.12	125.1865
825.23	126.4837
825.34	125.2108
825.46	124.5799
825.57	131.1265
825.69	129.6820
825.80	130.0866
825.91	131.8509
826.03	134.8484
826.14	127.6209
826.26	126.9257
826.37	123.3558
826.48	130.7454
826.60	125.8436
826.71	126.6036
826.83	118.7590
826.94	115.6343
827.05	114.5666
827.17	117.4706
827.28	121.1645
827.39	125.9744
827.51	128.6898
827.62	125.1295
827.74	131.8295
827.85	130.9008
827.96	116.3412
828.08	130.0182
828.19	166.1709
828.31	147.7453
828.42	133.9208
828.53	145.5739
828.65	51.7881
828.76	0.0000
828.87	0.0000
828.99	0.0000
