Wavelength (nm)	Reflectance (%)
377.35	0.0000
377.48	0.0000
377.62	0.0000
377.75	0.0000
377.88	0.0000
378.02	0.0000
378.15	200.0000
378.28	146.6000
378.41	0.0000
378.55	200.0000
378.68	0.0000
378.81	200.0000
378.95	200.0000
379.08	200.0000
379.21	200.0000
379.35	169.8065
379.48	200.0000
379.61	200.0000
379.74	145.5810
379.88	54.1220
380.01	80.2062
380.14	102.3235
380.28	48.7883
380.41	40.6063
380.54	124.1443
380.68	115.8960
380.81	67.4785
380.94	54.1063
381.07	82.0833
381.21	88.9123
381.34	34.9719
381.47	60.4639
381.61	123.0693
381.74	107.6377
381.87	33.9012
382.00	101.9703
382.14	128.1996
382.27	63.1971
382.40	39.0357
382.54	87.9552
382.67	96.1297
382.80	61.7304
382.93	88.3719
383.07	98.7205
383.20	90.8661
383.33	115.0599
383.47	73.8696
383.60	70.4815
383.73	97.0309
383.86	98.0498
384.00	57.1804
384.13	92.9691
384.26	106.0766
384.40	79.3973
384.53	64.6579
384.66	81.5091
384.79	99.7781
384.93	87.6157
385.06	64.8792
385.19	66.4798
385.33	71.7991
385.46	47.8665
385.59	60.2099
385.72	99.6315
385.86	93.8070
385.99	89.7587
386.12	93.2861
386.25	64.6310
386.39	69.3138
386.52	84.6385
386.65	79.2591
386.79	60.4713
386.92	97.7919
387.05	109.1544
387.18	82.6647
387.32	72.9665
387.45	111.4780
387.58	100.1797
387.71	79.2921
387.85	83.8773
387.98	80.9919
388.11	80.1225
388.25	67.3656
388.38	57.4175
388.51	71.1140
388.64	97.1990
388.78	101.6417
388.91	77.2086
389.04	101.2910
389.17	92.9947
389.31	57.4096
389.44	47.2732
389.57	80.7902
389.70	78.3235
389.84	85.7757
389.97	91.0802
390.10	96.8615
390.24	98.2447
390.37	73.1481
390.50	67.7984
390.63	71.5973
390.77	63.2477
390.90	65.6617
391.03	84.9087
391.16	78.6831
391.30	82.3789
391.43	97.9720
391.56	76.6610
391.69	79.7054
391.83	98.2918
391.96	76.6602
392.09	66.0580
392.22	93.6981
392.36	97.4196
392.49	66.8429
392.62	69.0611
392.75	78.0659
392.89	73.9346
393.02	78.4503
393.15	67.9381
393.28	91.0476
393.42	82.5676
393.55	82.6957
393.68	70.9725
393.81	93.9925
393.95	93.0132
394.08	88.7985
394.21	79.4799
394.34	78.3795
394.48	81.8727
394.61	72.6266
394.74	79.5490
394.87	78.1690
395.01	97.2428
395.14	80.7556
395.27	68.6932
395.40	74.4995
395.54	79.8049
395.67	56.2767
395.80	68.5323
395.93	83.6715
396.07	83.1836
396.20	78.6213
396.33	81.8940
396.46	86.0584
396.59	93.6835
396.73	76.1834
396.86	76.1834
396.99	93.2139
397.12	109.6924
397.26	60.4071
397.39	64.9414
397.52	83.8662
397.65	78.2492
397.79	49.4689
397.92	94.3493
398.05	107.0738
398.18	83.9866
398.32	73.6376
398.45	81.4891
398.58	86.0032
398.71	80.4173
398.84	79.2947
398.98	78.6277
399.11	83.9628
399.24	81.3150
399.37	81.4907
399.51	87.1438
399.64	88.9268
399.77	85.9807
399.90	89.6219
400.03	79.4908
400.17	73.1988
400.30	76.8385
400.43	76.6712
400.56	70.8610
400.70	87.2750
400.83	94.1200
400.96	92.8737
401.09	87.0648
401.23	88.1883
401.36	80.0090
401.49	79.5556
401.62	81.7850
401.75	88.7090
401.89	83.3438
402.02	82.4676
402.15	82.7171
402.28	84.9739
402.41	89.1017
402.55	79.2420
402.68	76.3569
402.81	83.3553
402.94	87.3477
403.08	76.8865
403.21	81.6837
403.34	92.3186
403.47	83.0837
403.60	71.1432
403.74	81.6486
403.87	87.8271
404.00	87.9840
404.13	96.2537
404.26	97.0995
404.40	92.9620
404.53	98.8598
404.66	86.6389
404.79	80.7154
404.93	93.5390
405.06	91.0556
405.19	81.7393
405.32	84.3177
405.45	92.2632
405.59	93.2162
405.72	69.8045
405.85	79.7283
405.98	91.8247
406.11	85.5221
406.25	69.7140
406.38	92.6443
406.51	91.0036
406.64	86.5427
406.77	82.1135
406.91	90.0250
407.04	91.0601
407.17	88.8812
407.30	77.5237
407.43	77.5251
407.57	83.8661
407.70	86.4631
407.83	88.9406
407.96	87.2019
408.09	97.3310
408.23	99.2283
408.36	82.8381
408.49	79.2574
408.62	97.9064
408.75	92.3313
408.89	86.4231
409.02	93.5473
409.15	93.8519
409.28	96.6383
409.41	84.4788
409.55	83.3514
409.68	97.1661
409.81	94.2317
409.94	83.8395
410.07	100.1577
410.20	101.1733
410.34	93.7749
410.47	91.6094
410.60	95.8094
410.73	90.0559
410.86	91.6384
411.00	92.4531
411.13	95.3232
411.26	88.5948
411.39	90.6466
411.52	88.6178
411.66	91.5168
411.79	90.9390
411.92	96.8599
412.05	97.2998
412.18	93.4743
412.31	88.2960
412.45	98.5394
412.58	98.5294
412.71	90.8705
412.84	99.2557
412.97	106.2001
413.11	98.2242
413.24	88.0573
413.37	99.3636
413.50	100.9423
413.63	94.6376
413.76	93.8974
413.90	105.0855
414.03	101.9667
414.16	97.7558
414.29	90.3046
414.42	95.6055
414.56	94.1476
414.69	94.4829
414.82	92.4951
414.95	101.7463
415.08	95.2092
415.21	103.2266
415.35	99.7110
415.48	96.0746
415.61	106.5500
415.74	111.1593
415.87	90.2712
416.00	95.7999
416.14	107.2726
416.27	99.4125
416.40	95.9013
416.53	108.8933
416.66	112.5300
416.79	103.2050
416.93	101.2736
417.06	103.7717
417.19	104.4528
417.32	104.8134
417.45	100.7754
417.58	101.8006
417.72	102.0583
417.85	96.4811
417.98	95.2026
418.11	103.2119
418.24	102.7907
418.37	103.5875
418.51	101.5006
418.64	98.1266
418.77	103.9554
418.90	105.1066
419.03	98.3111
419.16	109.3302
419.29	116.5559
419.43	98.6764
419.56	96.3287
419.69	107.4612
419.82	105.4398
419.95	99.9288
420.08	104.7773
420.22	105.0839
420.35	101.0260
420.48	105.2905
420.61	99.3359
420.74	108.9879
420.87	113.7652
421.00	109.9733
421.14	98.9595
421.27	103.8599
421.40	102.9075
421.53	101.8115
421.66	105.1349
421.79	109.5591
421.93	113.8125
422.06	109.1634
422.19	106.2133
422.32	106.9304
422.45	111.4579
422.58	104.8471
422.71	103.3992
422.85	108.7232
422.98	110.9407
423.11	109.0202
423.24	111.3035
423.37	113.1668
423.50	110.4898
423.63	109.0694
423.77	106.3107
423.90	102.7752
424.03	104.6023
424.16	107.9109
424.29	108.3168
424.42	111.6533
424.55	112.9879
424.69	112.4885
424.82	113.2558
424.95	108.1486
425.08	106.4721
425.21	109.1896
425.34	108.3700
425.47	106.9784
425.60	110.5696
425.74	110.2706
425.87	107.8287
426.00	110.1817
426.13	109.4877
426.26	109.9387
426.39	105.9235
426.52	109.2412
426.66	113.7158
426.79	105.1806
426.92	101.5005
427.05	107.8807
427.18	108.2466
427.31	104.1359
427.44	108.4394
427.57	113.7455
427.71	111.4505
427.84	105.0351
427.97	102.3069
428.10	108.0062
428.23	112.7993
428.36	104.8246
428.49	103.1722
428.62	106.6820
428.76	108.9132
428.89	102.1553
429.02	103.8172
429.15	111.3404
429.28	110.6740
429.41	106.1146
429.54	102.9410
429.67	109.5060
429.81	111.2424
429.94	106.6565
430.07	100.3616
430.20	105.1834
430.33	106.2146
430.46	104.0656
430.59	110.5470
430.72	115.3575
430.85	116.6293
430.99	113.0148
431.12	108.9334
431.25	109.2162
431.38	112.7124
431.51	105.3690
431.64	104.9885
431.77	109.8066
431.90	110.1879
432.03	106.4802
432.17	108.9230
432.30	112.6897
432.43	110.8609
432.56	107.6921
432.69	105.2898
432.82	107.6280
432.95	106.7858
433.08	107.6517
433.21	107.7733
433.35	112.5779
433.48	111.6390
433.61	112.9413
433.74	109.8660
433.87	112.2012
434.00	110.4949
434.13	109.6331
434.26	106.4034
434.39	110.2177
434.53	108.8194
434.66	110.4237
434.79	106.0148
434.92	110.0256
435.05	109.7302
435.18	104.3427
435.31	102.3402
435.44	108.8210
435.57	110.6938
435.70	108.1901
435.84	105.9761
435.97	108.1886
436.10	108.7527
436.23	104.0195
436.36	103.7562
436.49	110.2647
436.62	107.5055
436.75	105.4715
436.88	106.1442
437.01	110.4475
437.14	110.6641
437.28	107.4550
437.41	105.1417
437.54	108.5898
437.67	110.8928
437.80	103.2025
437.93	104.7016
438.06	111.8645
438.19	111.3935
438.32	105.8950
438.45	109.2745
438.58	110.8521
438.72	108.8511
438.85	106.2546
438.98	105.6635
439.11	108.3796
439.24	109.0909
439.37	105.1680
439.50	107.2823
439.63	110.5638
439.76	112.1708
439.89	112.0639
440.02	111.0127
440.15	110.6745
440.29	111.9257
440.42	109.2194
440.55	105.4656
440.68	111.1235
440.81	112.0520
440.94	105.2421
441.07	105.8784
441.20	110.9541
441.33	107.8040
441.46	105.2534
441.59	109.4956
441.72	110.8849
441.85	109.2292
441.99	106.4285
442.12	105.7777
442.25	106.1177
442.38	108.5066
442.51	108.6912
442.64	111.2831
442.77	113.4664
442.90	114.3993
443.03	112.1267
443.16	109.2426
443.29	110.7355
443.42	108.9305
443.55	108.1119
443.68	107.7326
443.82	111.3551
443.95	108.4248
444.08	109.2073
444.21	107.9265
444.34	107.8875
444.47	107.1133
444.60	109.7106
444.73	107.3503
444.86	108.0880
444.99	109.1602
445.12	110.8513
445.25	108.7750
445.38	110.0376
445.51	111.7841
445.64	114.7523
445.78	108.0826
445.91	106.8455
446.04	111.2650
446.17	108.0488
446.30	103.2150
446.43	109.9913
446.56	112.6797
446.69	107.1202
446.82	106.2359
446.95	108.4811
447.08	109.0760
447.21	107.4181
447.34	108.1754
447.47	110.3776
447.60	107.5203
447.73	106.2721
447.86	107.7591
447.99	108.3317
448.13	110.1284
448.26	111.0310
448.39	109.2599
448.52	110.4449
448.65	111.1530
448.78	107.9242
448.91	110.2236
449.04	109.9700
449.17	108.2726
449.30	109.1187
449.43	107.8500
449.56	106.2421
449.69	110.3953
449.82	109.0773
449.95	106.5352
450.08	109.3798
450.21	110.2919
450.34	106.6298
450.47	108.8479
450.60	111.6369
450.73	112.9380
450.87	111.6208
451.00	106.7741
451.13	107.7677
451.26	105.9821
451.39	104.2154
451.52	104.5023
451.65	110.3902
451.78	111.2328
451.91	109.2614
452.04	107.3785
452.17	110.0525
452.30	110.5258
452.43	106.3545
452.56	110.9379
452.69	110.5672
452.82	108.4466
452.95	109.6381
453.08	108.8928
453.21	107.9193
453.34	109.8114
453.47	106.5928
453.60	104.2447
453.73	106.9738
453.86	105.3337
453.99	106.2767
454.12	108.8835
454.25	110.6362
454.38	109.8741
454.52	110.6192
454.65	111.1328
454.78	110.5301
454.91	109.2781
455.04	110.4835
455.17	107.1590
455.30	106.7609
455.43	109.2544
455.56	107.9495
455.69	105.9005
455.82	109.8090
455.95	109.2846
456.08	107.9844
456.21	109.3595
456.34	109.4817
456.47	108.7927
456.60	108.9261
456.73	107.1042
456.86	107.1561
456.99	108.6286
457.12	106.8290
457.25	105.8756
457.38	106.8277
457.51	106.6809
457.64	105.9434
457.77	107.1296
457.90	107.2786
458.03	107.2104
458.16	106.1752
458.29	106.8379
458.42	107.4896
458.55	108.5002
458.68	106.9532
458.81	104.0342
458.94	105.7472
459.07	107.2049
459.20	106.2012
459.33	105.2683
459.46	108.4223
459.59	108.6067
459.72	105.3505
459.85	104.6841
459.98	107.6360
460.11	109.2631
460.24	105.2647
460.37	106.0664
460.50	107.7873
460.63	107.6957
460.76	104.7777
460.89	105.8408
461.02	107.4326
461.15	107.1014
461.28	104.3748
461.41	106.9000
461.54	107.8896
461.67	106.0642
461.80	106.0720
461.93	107.1633
462.06	106.6792
462.19	107.8444
462.32	106.9992
462.45	107.0188
462.58	107.7775
462.71	108.2527
462.84	106.1425
462.97	106.5720
463.10	105.3226
463.23	105.4913
463.36	106.0288
463.49	106.1530
463.62	107.0663
463.75	108.2459
463.88	110.2346
464.01	106.2087
464.14	107.5014
464.27	108.7084
464.40	107.5500
464.53	105.7281
464.66	107.4019
464.79	107.5085
464.92	106.2781
465.05	106.4645
465.18	106.4604
465.31	107.9482
465.44	107.8941
465.57	105.3230
465.70	106.4329
465.83	108.3835
465.96	106.7721
466.09	105.4986
466.22	108.8055
466.35	108.8076
466.48	107.1989
466.61	107.2423
466.74	106.7721
466.87	105.6801
467.00	104.1071
467.13	104.8662
467.26	106.5648
467.39	107.4796
467.52	105.9769
467.65	107.1212
467.78	105.9617
467.91	104.5962
468.04	104.4111
468.17	106.7354
468.30	106.7806
468.43	106.4163
468.56	105.8670
468.69	107.2340
468.82	106.8555
468.95	106.9530
469.08	108.1988
469.21	107.6577
469.34	105.5984
469.47	106.8128
469.60	106.8964
469.73	105.7723
469.86	108.8060
469.99	110.0335
470.11	107.7160
470.24	107.1957
470.37	108.3728
470.50	107.6801
470.63	106.6895
470.76	106.2491
470.89	107.8534
471.02	108.1617
471.15	105.6588
471.28	105.0194
471.41	107.1114
471.54	107.1691
471.67	104.9130
471.80	105.8605
471.93	107.4318
472.06	107.8935
472.19	104.6226
472.32	104.9357
472.45	105.7422
472.58	105.3125
472.71	104.5141
472.84	106.9362
472.97	106.8712
473.10	107.6703
473.23	106.6530
473.36	105.9991
473.49	105.3866
473.62	105.6118
473.74	104.9834
473.87	106.6912
474.00	106.7731
474.13	106.2739
474.26	107.0036
474.39	106.7842
474.52	105.3652
474.65	106.6914
474.78	107.7062
474.91	105.9215
475.04	105.7605
475.17	106.7901
475.30	105.3608
475.43	105.0600
475.56	106.7225
475.69	107.7441
475.82	106.6735
475.95	107.5494
476.08	107.7607
476.21	107.7317
476.34	106.1251
476.46	107.4367
476.59	107.3284
476.72	107.6201
476.85	106.4351
476.98	106.5382
477.11	106.8589
477.24	106.2171
477.37	105.0695
477.50	106.2016
477.63	106.8026
477.76	106.1012
477.89	105.7282
478.02	105.6773
478.15	105.6448
478.28	106.0816
478.41	104.9614
478.54	105.7511
478.66	106.2576
478.79	106.2320
478.92	105.4776
479.05	106.3407
479.18	105.5062
479.31	105.6296
479.44	105.4012
479.57	105.4796
479.70	106.2983
479.83	107.3091
479.96	105.6799
480.09	105.3295
480.22	105.6703
480.35	105.0713
480.48	104.8525
480.60	105.5924
480.73	106.2068
480.86	106.3183
480.99	106.0527
481.12	105.0759
481.25	106.4212
481.38	106.5540
481.51	105.7678
481.64	105.9182
481.77	107.0075
481.90	106.6126
482.03	105.6571
482.16	106.3272
482.29	106.4381
482.41	106.6968
482.54	106.7180
482.67	107.2854
482.80	107.7615
482.93	107.1860
483.06	106.5206
483.19	106.6477
483.32	106.9020
483.45	105.9894
483.58	105.7694
483.71	105.4887
483.84	105.0004
483.97	104.7347
484.09	104.8337
484.22	105.5801
484.35	105.8227
484.48	105.6749
484.61	105.6907
484.74	106.0230
484.87	105.7329
485.00	106.0767
485.13	106.2053
485.26	106.8149
485.39	106.0307
485.52	105.8340
485.64	105.3863
485.77	106.0065
485.90	105.6440
486.03	106.6436
486.16	106.6983
486.29	106.6644
486.42	106.3151
486.55	105.7089
486.68	105.0431
486.81	105.5859
486.94	105.5309
487.06	104.9448
487.19	105.3108
487.32	105.6686
487.45	105.1134
487.58	105.6419
487.71	105.9044
487.84	105.6130
487.97	105.4156
488.10	105.9982
488.23	105.2587
488.35	105.5196
488.48	105.9392
488.61	106.1351
488.74	105.7991
488.87	105.5528
489.00	105.5825
489.13	105.7891
489.26	105.6368
489.39	105.4618
489.52	106.0111
489.64	105.6870
489.77	105.3560
489.90	105.1353
490.03	105.3916
490.16	105.7480
490.29	105.3783
490.42	105.6459
490.55	105.6496
490.68	106.0108
490.81	105.0725
490.93	105.4766
491.06	105.3844
491.19	105.2420
491.32	105.0648
491.45	105.6153
491.58	105.8386
491.71	106.1537
491.84	105.8410
491.97	105.4850
492.09	105.8159
492.22	105.4062
492.35	105.0621
492.48	105.8951
492.61	105.7468
492.74	105.5983
492.87	106.0820
493.00	105.7468
493.12	105.4337
493.25	105.8702
493.38	106.1625
493.51	105.6484
493.64	105.7552
493.77	105.8165
493.90	105.2131
494.03	104.6955
494.16	105.1888
494.28	105.7504
494.41	105.1727
494.54	105.3943
494.67	106.1310
494.80	105.8695
494.93	105.5042
495.06	106.2439
495.19	106.7215
495.31	106.4413
495.44	106.2836
495.57	106.4776
495.70	106.7319
495.83	106.6200
495.96	105.8334
496.09	105.6513
496.22	106.1512
496.34	105.8886
496.47	105.3152
496.60	105.5055
496.73	106.1612
496.86	105.2336
496.99	105.3007
497.12	105.6303
497.24	105.7223
497.37	105.5785
497.50	105.9918
497.63	105.2486
497.76	104.8017
497.89	105.6254
498.02	105.5831
498.15	105.2947
498.27	105.5895
498.40	106.0739
498.53	105.4752
498.66	105.8395
498.79	105.8799
498.92	105.9273
499.05	106.0484
499.17	105.5185
499.30	105.1772
499.43	105.7272
499.56	105.7501
499.69	105.6032
499.82	106.2736
499.95	106.4027
500.07	106.0020
500.20	105.2605
500.33	105.3085
500.46	105.5119
500.59	105.2823
500.72	104.9979
500.85	105.5856
500.97	106.0022
501.10	105.7456
501.23	105.1237
501.36	105.0392
501.49	105.3806
501.62	104.4401
501.75	104.6865
501.87	105.1390
502.00	105.2432
502.13	105.2665
502.26	105.6077
502.39	105.5123
502.52	105.5109
502.64	105.1709
502.77	105.0002
502.90	105.4090
503.03	105.2200
503.16	104.7946
503.29	105.2083
503.42	105.4644
503.54	105.4342
503.67	104.9091
503.80	105.9308
503.93	106.0716
504.06	105.3370
504.19	105.0410
504.31	105.1666
504.44	104.4829
504.57	104.6407
504.70	104.8876
504.83	104.9134
504.96	105.2010
505.08	104.7469
505.21	104.3935
505.34	104.6974
505.47	104.8102
505.60	104.9195
505.73	104.9178
505.85	105.2943
505.98	105.5924
506.11	105.4973
506.24	105.2815
506.37	105.4406
506.50	105.2735
506.62	104.9079
506.75	104.4942
506.88	104.8199
507.01	105.1048
507.14	105.0424
507.27	105.0435
507.39	105.6129
507.52	104.9878
507.65	105.2639
507.78	104.9657
507.91	104.7478
508.04	104.4138
508.16	104.7499
508.29	105.0196
508.42	105.4945
508.55	105.1263
508.68	105.3794
508.81	105.5664
508.93	105.1042
509.06	104.7540
509.19	105.3944
509.32	104.9529
509.45	104.8419
509.57	104.8049
509.70	104.9289
509.83	104.6901
509.96	104.9275
510.09	104.8279
510.22	104.9538
510.34	104.4510
510.47	104.5510
510.60	104.5363
510.73	104.5305
510.86	104.5609
510.98	104.8333
511.11	104.7488
511.24	104.9503
511.37	104.9936
511.50	104.8185
511.63	104.9615
511.75	104.8254
511.88	104.5956
512.01	104.5029
512.14	104.6151
512.27	104.6655
512.39	104.7754
512.52	104.9044
512.65	105.0592
512.78	104.8650
512.91	104.7019
513.03	104.6157
513.16	104.7125
513.29	104.5348
513.42	104.4109
513.55	104.7809
513.67	105.0565
513.80	104.6318
513.93	104.3852
514.06	104.6364
514.19	104.2025
514.31	104.2872
514.44	104.3853
514.57	104.2846
514.70	104.5303
514.83	104.8679
514.95	104.6235
515.08	104.6833
515.21	104.9686
515.34	104.8879
515.47	104.6031
515.59	104.4823
515.72	104.0553
515.85	104.2127
515.98	103.8543
516.11	103.6875
516.23	103.9025
516.36	104.4802
516.49	104.1002
516.62	103.9166
516.75	104.5554
516.87	104.4503
517.00	103.7331
517.13	103.8721
517.26	104.5967
517.39	104.0025
517.51	103.4001
517.64	104.0862
517.77	103.9696
517.90	103.5253
518.02	103.8578
518.15	104.1314
518.28	103.7970
518.41	103.7400
518.54	103.7115
518.66	103.6708
518.79	103.8067
518.92	103.7504
519.05	103.5978
519.18	103.6206
519.30	103.4552
519.43	103.5476
519.56	103.4004
519.69	103.8238
519.81	103.9892
519.94	103.8645
520.07	103.7288
520.20	103.9341
520.33	103.9276
520.45	103.7576
520.58	103.6886
520.71	103.7441
520.84	103.9787
520.96	104.0247
521.09	103.7525
521.22	103.6968
521.35	103.9277
521.48	103.8641
521.60	103.5291
521.73	103.1216
521.86	103.3803
521.99	103.3306
522.11	102.9720
522.24	103.2253
522.37	103.3994
522.50	103.7070
522.62	103.5323
522.75	103.8358
522.88	103.6425
523.01	103.8493
523.14	103.2137
523.26	103.5299
523.39	103.1562
523.52	103.2651
523.65	103.4670
523.77	103.6318
523.90	103.2230
524.03	103.4298
524.16	103.4373
524.28	103.3254
524.41	103.6622
524.54	103.7554
524.67	103.4861
524.79	103.1067
524.92	103.3407
525.05	102.9082
525.18	103.1996
525.31	102.9141
525.43	103.5133
525.56	103.9065
525.69	103.9386
525.82	103.4754
525.94	104.1307
526.07	103.9958
526.20	103.2157
526.33	103.2268
526.45	103.4194
526.58	103.4631
526.71	103.1596
526.84	103.5691
526.96	103.5409
527.09	103.5711
527.22	103.6954
527.35	103.4841
527.47	103.4918
527.60	103.4585
527.73	103.2402
527.86	103.0401
527.98	103.5338
528.11	103.0859
528.24	103.3753
528.37	103.3752
528.49	102.9397
528.62	103.1957
528.75	103.5399
528.88	103.3696
529.00	103.7377
529.13	104.2159
529.26	103.4633
529.39	103.1755
529.51	103.4843
529.64	103.3340
529.77	103.0379
529.90	103.3856
530.02	103.7829
530.15	103.5566
530.28	103.4343
530.40	103.4583
530.53	103.5427
530.66	102.9956
530.79	102.9069
530.91	102.7978
531.04	102.8946
531.17	102.6742
531.30	102.9552
531.42	102.4660
531.55	102.7645
531.68	102.9354
531.81	102.9745
531.93	103.2241
532.06	103.6092
532.19	103.3126
532.31	103.0823
532.44	103.4117
532.57	103.2391
532.70	103.2110
532.82	103.1215
532.95	103.0212
533.08	102.9172
533.21	103.0785
533.33	103.2578
533.46	102.9990
533.59	103.3620
533.71	103.4419
533.84	103.3713
533.97	103.2644
534.10	103.6134
534.22	103.5032
534.35	103.0267
534.48	102.9214
534.61	103.0404
534.73	102.9487
534.86	102.6469
534.99	102.9569
535.11	103.0583
535.24	103.1996
535.37	103.5906
535.50	103.7376
535.62	103.5946
535.75	103.5868
535.88	103.3189
536.00	102.9465
536.13	102.9748
536.26	103.1849
536.39	102.8507
536.51	102.9888
536.64	103.2990
536.77	103.3423
536.89	103.1799
537.02	103.5270
537.15	103.4525
537.28	103.5190
537.40	103.2966
537.53	103.2715
537.66	103.3412
537.78	103.5550
537.91	103.4793
538.04	104.1099
538.17	103.9969
538.29	103.5083
538.42	103.2713
538.55	103.3284
538.67	102.9018
538.80	103.3670
538.93	103.4391
539.05	103.3463
539.18	103.1100
539.31	103.3939
539.44	103.0438
539.56	103.3167
539.69	103.7426
539.82	104.0046
539.94	103.4176
540.07	103.5019
540.20	103.5143
540.32	103.1208
540.45	102.6596
540.58	103.2857
540.71	103.5589
540.83	103.6269
540.96	103.4577
541.09	103.5346
541.21	103.5419
541.34	103.4661
541.47	103.3188
541.59	103.2762
541.72	103.5448
541.85	103.6794
541.98	103.5534
542.10	103.1360
542.23	103.4009
542.36	103.4109
542.48	103.1964
542.61	103.0554
542.74	103.5834
542.86	103.8097
542.99	103.6749
543.12	103.6593
543.24	103.6189
543.37	103.5524
543.50	103.3433
543.62	103.6140
543.75	103.6519
543.88	103.6559
544.01	103.4960
544.13	103.5346
544.26	103.2763
544.39	102.9561
544.51	102.8773
544.64	103.0615
544.77	102.8384
544.89	102.9901
545.02	102.9285
545.15	102.7523
545.27	102.7934
545.40	102.9411
545.53	103.0556
545.65	103.5349
545.78	103.9356
545.91	103.7714
546.03	104.0352
546.16	103.9581
546.29	103.7110
546.41	103.8802
546.54	103.8280
546.67	103.4357
546.79	103.6088
546.92	103.5181
547.05	103.3311
547.17	103.3822
547.30	103.6994
547.43	103.3719
547.56	103.4929
547.68	103.4205
547.81	103.4364
547.94	103.3491
548.06	103.1207
548.19	103.1702
548.32	103.3762
548.44	103.2985
548.57	103.0364
548.70	103.2560
548.82	103.2209
548.95	103.2472
549.08	102.9492
549.20	103.0637
549.33	103.1379
549.45	103.3114
549.58	102.9770
549.71	103.5921
549.83	103.5777
549.96	103.3951
550.09	102.9977
550.21	103.2603
550.34	103.0175
550.47	103.4426
550.59	103.5475
550.72	103.3217
550.85	103.3333
550.97	103.5348
551.10	103.0092
551.23	102.9850
551.35	103.5556
551.48	103.7215
551.61	103.3906
551.73	103.5344
551.86	103.6631
551.99	103.2308
552.11	102.8240
552.24	103.0764
552.37	103.1510
552.49	103.0786
552.62	103.3371
552.75	103.5708
552.87	103.4976
553.00	103.5332
553.12	103.4189
553.25	103.2008
553.38	103.0587
553.50	103.1967
553.63	103.0543
553.76	103.1788
553.88	103.4690
554.01	103.4114
554.14	103.0815
554.26	103.3327
554.39	103.2914
554.52	103.2305
554.64	103.2133
554.77	103.2750
554.89	103.0771
555.02	103.1062
555.15	103.0411
555.27	102.8474
555.40	103.0540
555.53	103.2194
555.65	102.9458
555.78	102.6931
555.91	103.0551
556.03	103.0749
556.16	102.7550
556.29	102.6819
556.41	103.0513
556.54	102.9919
556.66	102.3837
556.79	102.4248
556.92	102.8990
557.04	102.6586
557.17	102.4801
557.30	102.8686
557.42	102.7645
557.55	102.5191
557.67	102.4224
557.80	102.3419
557.93	102.5391
558.05	102.5839
558.18	102.3794
558.31	102.2577
558.43	102.3797
558.56	102.3253
558.68	102.3076
558.81	102.1505
558.94	102.5084
559.06	102.5478
559.19	102.4333
559.32	102.4294
559.44	102.7305
559.57	102.5697
559.69	102.3201
559.82	102.2501
559.95	102.5180
560.07	102.5084
560.20	102.3019
560.33	102.5868
560.45	102.2954
560.58	102.2218
560.70	102.2843
560.83	102.4953
560.96	102.2669
561.08	102.7684
561.21	102.9898
561.33	102.6800
561.46	102.7499
561.59	102.9328
561.71	102.7912
561.84	102.3808
561.97	102.7983
562.09	102.7717
562.22	102.5673
562.34	102.5137
562.47	102.6022
562.60	102.4575
562.72	102.2713
562.85	102.3786
562.97	102.3820
563.10	102.3922
563.23	102.2360
563.35	102.2192
563.48	102.0734
563.60	102.2257
563.73	102.2810
563.86	102.3975
563.98	102.6015
564.11	102.4464
564.23	102.2322
564.36	101.9935
564.49	102.0386
564.61	101.9760
564.74	102.0394
564.86	102.0212
564.99	101.9978
565.12	101.9942
565.24	101.9487
565.37	102.0397
565.49	102.1360
565.62	102.5415
565.75	102.0194
565.87	101.9941
566.00	102.3799
566.12	102.1465
566.25	102.0112
566.38	102.3378
566.50	102.3185
566.63	102.1157
566.75	102.3503
566.88	102.2138
567.01	102.3689
567.13	102.6057
567.26	102.3929
567.38	102.4529
567.51	102.4569
567.64	102.3818
567.76	102.2722
567.89	102.4866
568.01	102.2628
568.14	102.2387
568.26	102.3000
568.39	102.1774
568.52	102.0930
568.64	102.2059
568.77	102.1863
568.89	102.2972
569.02	102.3790
569.15	102.2486
569.27	101.9967
569.40	101.9385
569.52	101.7904
569.65	101.8106
569.77	102.0078
569.90	101.9767
570.03	102.2806
570.15	102.4254
570.28	102.6993
570.40	102.7137
570.53	102.9599
570.66	102.8578
570.78	102.8443
570.91	102.5180
571.03	102.4456
571.16	102.5464
571.28	102.4762
571.41	102.5786
571.54	102.5824
571.66	102.5813
571.79	102.5866
571.91	102.4698
572.04	102.0400
572.16	102.1157
572.29	102.1473
572.42	102.1802
572.54	102.2164
572.67	102.6007
572.79	102.6445
572.92	102.6925
573.04	102.8507
573.17	103.1400
573.29	102.7081
573.42	102.5134
573.55	102.4879
573.67	102.3680
573.80	102.3349
573.92	102.5290
574.05	102.6641
574.17	102.7531
574.30	102.8925
574.43	102.7372
574.55	102.9837
574.68	103.0589
574.80	103.1475
574.93	103.0778
575.05	103.1711
575.18	102.9872
575.30	102.8207
575.43	102.8345
575.56	102.7959
575.68	102.8753
575.81	102.8350
575.93	102.9664
576.06	103.0261
576.18	103.0609
576.31	102.6460
576.43	102.7644
576.56	102.8544
576.69	102.8860
576.81	102.9450
576.94	103.3412
577.06	103.4575
577.19	103.3560
577.31	102.9485
577.44	102.8913
577.56	102.7141
577.69	102.8268
577.82	103.2580
577.94	103.3906
578.07	103.2413
578.19	103.6545
578.32	103.6773
578.44	103.3837
578.57	103.6979
578.69	103.7934
578.82	103.5263
578.94	103.4667
579.07	103.5043
579.19	103.4038
579.32	103.6538
579.45	103.8991
579.57	103.8275
579.70	103.9377
579.82	103.7947
579.95	103.7769
580.07	103.5898
580.20	103.6906
580.32	103.7095
580.45	103.9380
580.57	103.8542
580.70	103.8438
580.82	104.2996
580.95	104.0702
581.08	104.1169
581.20	104.0792
581.33	104.1844
581.45	103.5483
581.58	103.9961
581.70	103.8908
581.83	103.9078
581.95	104.0265
582.08	104.3738
582.20	104.2538
582.33	104.3965
582.45	104.3498
582.58	104.2686
582.70	104.2010
582.83	104.0465
582.95	103.9536
583.08	103.9065
583.21	103.9553
583.33	104.2287
583.46	104.2903
583.58	104.1944
583.71	104.4126
583.83	104.4301
583.96	104.1294
584.08	104.0427
584.21	104.2497
584.33	104.3804
584.46	104.1762
584.58	104.0668
584.71	104.2871
584.83	104.4159
584.96	104.2114
585.08	104.2500
585.21	104.4844
585.33	104.4181
585.46	104.4948
585.58	104.7197
585.71	104.7881
585.83	104.9842
585.96	104.9414
586.08	104.7078
586.21	104.7953
586.33	104.8205
586.46	104.6565
586.59	104.6395
586.71	104.6062
586.84	104.5860
586.96	104.7716
587.09	104.4431
587.21	104.5106
587.34	104.7393
587.46	104.4799
587.59	104.4225
587.71	104.9346
587.84	105.0754
587.96	104.7960
588.09	104.8549
588.21	104.7954
588.34	104.6587
588.46	104.6649
588.59	104.9779
588.71	105.1337
588.84	104.9376
588.96	104.9695
589.09	105.1824
589.21	105.2409
589.34	105.1187
589.46	105.3606
589.59	105.5873
589.71	105.4877
589.84	105.3323
589.96	105.3762
590.09	105.4321
590.21	105.2311
590.34	105.3717
590.46	105.4152
590.59	105.3187
590.71	105.5890
590.84	105.4464
590.96	105.2274
591.09	105.3672
591.21	105.7925
591.34	105.3767
591.46	105.4913
591.59	105.4076
591.71	105.5461
591.83	105.3091
591.96	105.6259
592.08	105.7430
592.21	105.9490
592.33	105.9242
592.46	105.8849
592.58	105.6760
592.71	105.6178
592.83	105.3245
592.96	105.2050
593.08	105.3865
593.21	105.5655
593.33	105.6322
593.46	105.6800
593.58	105.5716
593.71	105.6377
593.83	105.3357
593.96	105.2006
594.08	105.4138
594.21	105.4262
594.33	105.4827
594.46	105.9046
594.58	106.0463
594.71	106.0336
594.83	105.6694
594.96	105.4447
595.08	105.4439
595.20	105.5656
595.33	105.1033
595.45	105.4847
595.58	105.7334
595.70	105.7028
595.83	105.4757
595.95	105.9340
596.08	106.1147
596.20	105.9492
596.33	105.9794
596.45	106.2717
596.58	106.1853
596.70	106.1430
596.83	106.1147
596.95	106.3024
597.08	106.1563
597.20	106.1856
597.32	106.0924
597.45	106.1272
597.57	105.9656
597.70	105.8802
597.82	105.9947
597.95	105.9936
598.07	105.9632
598.20	106.0002
598.32	105.9766
598.45	105.8290
598.57	105.9577
598.70	106.0969
598.82	105.8387
598.94	105.8031
599.07	105.8946
599.19	106.1024
599.32	105.7346
599.44	105.8350
599.57	105.9456
599.69	106.1068
599.82	105.5311
599.94	105.7179
600.07	105.9317
600.19	106.0693
600.31	105.6386
600.44	105.8842
600.56	106.0730
600.69	106.0472
600.81	106.0440
600.94	106.3215
601.06	106.2615
601.19	106.4019
601.31	106.1096
601.44	106.0127
601.56	105.9994
601.68	106.1829
601.81	105.8118
601.93	106.2412
602.06	106.5474
602.18	106.5028
602.31	106.4249
602.43	106.6550
602.56	106.5270
602.68	106.1771
602.80	106.4506
602.93	106.4784
603.05	106.3916
603.18	106.4294
603.30	106.6100
603.43	106.3497
603.55	106.3143
603.68	106.3276
603.80	106.1784
603.92	106.0721
604.05	106.3810
604.17	106.4369
604.30	106.3541
604.42	106.2281
604.55	106.2657
604.67	106.0827
604.79	105.9894
604.92	106.1514
605.04	106.3415
605.17	106.3118
605.29	106.1173
605.42	106.3143
605.54	106.2327
605.66	106.1894
605.79	106.0583
605.91	106.2737
606.04	106.0473
606.16	106.0283
606.29	106.2215
606.41	106.5419
606.53	106.5295
606.66	106.8835
606.78	107.0872
606.91	107.0011
607.03	106.9710
607.16	106.8616
607.28	106.5371
607.40	106.4839
607.53	106.5100
607.65	106.5395
607.78	106.4903
607.90	106.8091
608.03	106.8027
608.15	106.9717
608.27	107.0209
608.40	107.3532
608.52	107.0668
608.65	107.2833
608.77	106.9678
608.89	106.5951
609.02	106.5686
609.14	106.5921
609.27	106.4477
609.39	106.9365
609.52	107.2218
609.64	107.2385
609.76	107.2139
609.89	106.9232
610.01	106.6917
610.14	106.7646
610.26	106.5626
610.38	106.9377
610.51	107.3139
610.63	107.2256
610.76	107.1635
610.88	107.0338
611.01	106.8028
611.13	106.7804
611.25	106.8336
611.38	106.9301
611.50	107.1646
611.63	107.3166
611.75	107.2437
611.87	107.0054
612.00	106.8573
612.12	107.0838
612.25	107.0198
612.37	107.0303
612.49	107.0088
612.62	107.1200
612.74	106.9294
612.87	107.0074
612.99	106.8527
613.11	106.8394
613.24	106.7814
613.36	106.8270
613.49	106.7787
613.61	106.7978
613.73	107.1420
613.86	107.2266
613.98	107.1472
614.11	107.0035
614.23	107.0506
614.35	107.0053
614.48	106.9567
614.60	106.9517
614.72	107.1529
614.85	107.3275
614.97	107.4384
615.10	107.4155
615.22	107.5093
615.34	107.6265
615.47	107.5862
615.59	107.4612
615.72	107.7312
615.84	107.3851
615.96	107.2325
616.09	107.3694
616.21	107.2714
616.34	107.0115
616.46	107.4190
616.58	107.4263
616.71	107.2377
616.83	107.2469
616.95	107.3630
617.08	107.4536
617.20	107.6186
617.33	107.4838
617.45	107.6413
617.57	107.6347
617.70	107.3975
617.82	107.1652
617.95	107.4447
618.07	107.4082
618.19	107.3110
618.32	107.5763
618.44	107.8601
618.56	108.0564
618.69	107.8828
618.81	108.0265
618.94	107.8991
619.06	107.6840
619.18	107.5708
619.31	107.5850
619.43	107.3695
619.55	107.6784
619.68	107.9019
619.80	107.4856
619.92	107.5242
620.05	107.8988
620.17	107.9393
620.30	107.7626
620.42	108.0549
620.54	108.2781
620.67	108.1703
620.79	107.7015
620.91	107.7078
621.04	107.8170
621.16	108.0256
621.29	108.0116
621.41	108.2302
621.53	108.5270
621.66	108.3581
621.78	107.9018
621.90	108.1506
622.03	108.3306
622.15	108.2484
622.27	108.5742
622.40	108.7643
622.52	108.8173
622.64	108.7690
622.77	108.4718
622.89	108.4073
623.02	108.5302
623.14	108.3213
623.26	108.1254
623.39	108.4576
623.51	108.6126
623.63	108.4356
623.76	108.3671
623.88	108.5903
624.00	108.5077
624.13	108.4020
624.25	108.5177
624.37	108.4256
624.50	108.6807
624.62	108.9367
624.75	108.7316
624.87	108.9464
624.99	109.1971
625.12	108.5286
625.24	108.3595
625.36	108.5997
625.49	108.3996
625.61	108.1968
625.73	108.8257
625.86	108.8440
625.98	108.8679
626.10	108.8323
626.23	108.9265
626.35	108.8638
626.47	108.8873
626.60	108.8943
626.72	108.9648
626.84	109.2034
626.97	109.3049
627.09	109.0567
627.21	108.9275
627.34	109.2869
627.46	109.3170
627.58	109.0469
627.71	109.7881
627.83	109.8290
627.95	109.3408
628.08	109.3233
628.20	109.7009
628.32	109.4325
628.45	109.5726
628.57	109.8919
628.69	109.7524
628.82	109.7777
628.94	109.7182
629.06	109.6860
629.19	109.9267
629.31	110.0623
629.43	109.9641
629.56	109.8527
629.68	110.0792
629.80	110.0681
629.93	110.1606
630.05	110.1449
630.17	110.5453
630.30	110.4587
630.42	110.5451
630.54	110.7253
630.67	110.5202
630.79	110.3917
630.91	110.3946
631.04	110.3561
631.16	110.3649
631.28	110.8044
631.41	110.6798
631.53	110.6085
631.65	110.3981
631.78	110.1859
631.90	110.3069
632.02	110.2137
632.14	110.4020
632.27	110.6192
632.39	110.4342
632.51	110.2722
632.64	110.5964
632.76	110.6926
632.88	110.8900
633.01	111.2538
633.13	110.9426
633.25	111.1368
633.38	111.2390
633.50	111.1413
633.62	111.2883
633.75	111.5762
633.87	111.4279
633.99	111.5668
634.11	111.4572
634.24	111.4469
634.36	111.5895
634.48	111.3627
634.61	111.3512
634.73	111.5780
634.85	111.6633
634.98	111.7472
635.10	111.7227
635.22	111.5818
635.35	111.8345
635.47	111.7971
635.59	111.6866
635.71	111.8824
635.84	111.8509
635.96	111.8023
636.08	111.7891
636.21	111.7664
636.33	112.1107
636.45	112.4375
636.58	112.0563
636.70	112.2157
636.82	112.6856
636.94	112.4807
637.07	112.2384
637.19	112.5014
637.31	112.6746
637.44	112.4507
637.56	112.5702
637.68	112.6963
637.81	113.1661
637.93	112.8467
638.05	112.4111
638.17	112.4905
638.30	112.6100
638.42	112.1999
638.54	112.3845
638.67	112.7458
638.79	112.8874
638.91	112.8655
639.03	112.9585
639.16	112.9486
639.28	113.0820
639.40	112.6765
639.53	112.7038
639.65	112.8505
639.77	112.7549
639.89	112.6736
640.02	113.0451
640.14	112.7098
640.26	112.5878
640.39	112.7603
640.51	112.6482
640.63	112.4673
640.75	112.9021
640.88	112.9789
641.00	112.6209
641.12	113.0659
641.24	113.5284
641.37	113.1290
641.49	113.2437
641.61	113.6415
641.74	113.6730
641.86	113.2763
641.98	113.6572
642.10	113.6787
642.23	113.6934
642.35	113.3705
642.47	113.3744
642.60	113.4589
642.72	113.3520
642.84	113.2949
642.96	113.3714
643.09	113.5772
643.21	113.5593
643.33	113.5856
643.45	113.5152
643.58	113.7668
643.70	113.7282
643.82	113.7833
643.94	113.8803
644.07	114.0310
644.19	113.8291
644.31	113.9862
644.44	113.9631
644.56	113.9757
644.68	114.1059
644.80	114.2932
644.93	114.1136
645.05	114.1866
645.17	114.2407
645.29	114.2110
645.42	113.9389
645.54	113.9477
645.66	113.9593
645.78	113.8772
645.91	113.7067
646.03	114.1003
646.15	114.3204
646.27	114.3563
646.40	114.2458
646.52	114.5635
646.64	114.6364
646.76	114.4365
646.89	114.3299
647.01	114.3134
647.13	114.5156
647.25	114.3328
647.38	114.2483
647.50	114.5249
647.62	114.8956
647.74	114.4712
647.87	114.2636
647.99	114.5507
648.11	114.6614
648.23	114.5047
648.36	114.8372
648.48	115.3037
648.60	115.5964
648.72	115.1131
648.85	115.2603
648.97	115.3099
649.09	115.2780
649.21	115.0703
649.34	115.3748
649.46	115.4367
649.58	115.5792
649.70	115.3590
649.83	115.3259
649.95	115.3398
650.07	115.2383
650.19	114.9338
650.32	114.9672
650.44	115.0076
650.56	114.9708
650.68	115.0173
650.81	114.9657
650.93	115.0763
651.05	114.9387
651.17	115.0362
651.29	115.0765
651.42	115.4108
651.54	115.6746
651.66	115.7412
651.78	115.3026
651.91	115.2931
652.03	115.2946
652.15	115.1127
652.27	115.3880
652.40	115.9557
652.52	116.2844
652.64	115.8582
652.76	115.9322
652.88	115.9539
653.01	116.1750
653.13	115.7980
653.25	116.0037
653.37	115.9771
653.50	116.0143
653.62	115.4530
653.74	115.4409
653.86	115.7614
653.98	115.8340
654.11	115.7605
654.23	115.7988
654.35	115.9326
654.47	115.9769
654.60	116.2550
654.72	115.9630
654.84	116.2789
654.96	116.4114
655.08	116.3043
655.21	115.9706
655.33	116.2650
655.45	116.3291
655.57	116.1224
655.70	115.8761
655.82	115.9156
655.94	116.2641
656.06	116.0894
656.18	116.1462
656.31	116.5198
656.43	116.6916
656.55	116.4517
656.67	116.5477
656.79	116.9305
656.92	117.0232
657.04	116.7354
657.16	116.8018
657.28	116.7456
657.40	116.7216
657.53	116.5382
657.65	116.4952
657.77	116.6005
657.89	116.9253
658.01	116.6859
658.14	116.7300
658.26	117.1283
658.38	116.9195
658.50	116.3639
658.62	116.5041
658.75	116.4265
658.87	116.5850
658.99	116.6812
659.11	116.7646
659.23	116.8804
659.36	116.9790
659.48	116.7836
659.60	116.8034
659.72	117.0769
659.84	117.0173
659.97	116.6243
660.09	116.4282
660.21	116.6468
660.33	116.9402
660.45	116.7854
660.58	116.9039
660.70	117.2605
660.82	116.9055
660.94	116.4361
661.06	116.3407
661.19	116.6763
661.31	116.4893
661.43	116.3589
661.55	116.3579
661.67	116.6604
661.80	116.5498
661.92	116.5349
662.04	116.7161
662.16	117.1118
662.28	117.0381
662.40	117.0138
662.53	117.2174
662.65	117.1222
662.77	117.1680
662.89	117.3481
663.01	117.4501
663.14	117.1955
663.26	117.4986
663.38	117.2142
663.50	116.7373
663.62	116.6468
663.74	116.7471
663.87	116.4462
663.99	116.0509
664.11	116.3123
664.23	116.5388
664.35	116.4578
664.48	116.8196
664.60	117.5226
664.72	117.6732
664.84	117.4002
664.96	117.6171
665.08	117.4373
665.21	117.6021
665.33	117.4759
665.45	117.5345
665.57	117.4649
665.69	117.4748
665.81	117.2211
665.94	117.0825
666.06	117.0709
666.18	117.3627
666.30	117.2329
666.42	117.0806
666.54	117.3372
666.67	117.2430
666.79	116.9561
666.91	117.2636
667.03	117.3816
667.15	117.3389
667.27	117.6411
667.40	117.3450
667.52	117.1042
667.64	117.2793
667.76	117.1123
667.88	116.8655
668.00	117.0651
668.13	117.2493
668.25	117.1723
668.37	117.1707
668.49	117.5809
668.61	117.8660
668.73	117.8060
668.85	117.6257
668.98	117.9511
669.10	117.6414
669.22	117.1845
669.34	117.3405
669.46	117.3200
669.58	117.0204
669.71	117.2362
669.83	117.4555
669.95	117.2746
670.07	117.2580
670.19	117.5160
670.31	117.4543
670.43	117.3422
670.56	117.2961
670.68	117.5874
670.80	117.1193
670.92	117.0520
671.04	117.3582
671.16	117.5639
671.28	117.2545
671.41	117.6615
671.53	117.9704
671.65	117.5414
671.77	117.2184
671.89	117.4932
672.01	117.7853
672.13	117.4472
672.26	117.9402
672.38	117.9929
672.50	117.7183
672.62	117.1822
672.74	117.2526
672.86	116.9882
672.98	117.1345
673.11	117.0364
673.23	117.3155
673.35	117.3274
673.47	117.6344
673.59	117.4515
673.71	117.1729
673.83	117.0060
673.96	117.1192
674.08	116.6847
674.20	116.7186
674.32	117.2711
674.44	117.4469
674.56	117.0847
674.68	117.0972
674.80	117.3654
674.93	117.3238
675.05	117.0812
675.17	117.1928
675.29	117.4020
675.41	117.2614
675.53	117.2718
675.65	117.2276
675.77	117.3585
675.90	117.5008
676.02	117.1873
676.14	116.8626
676.26	117.1618
676.38	117.1549
676.50	117.1155
676.62	117.7384
676.74	118.0007
676.87	117.6707
676.99	117.5956
677.11	117.5722
677.23	117.2642
677.35	117.5397
677.47	117.8843
677.59	117.8107
677.71	117.7726
677.83	117.6563
677.96	117.4800
678.08	117.4724
678.20	117.6869
678.32	117.6943
678.44	117.5206
678.56	117.3999
678.68	117.5178
678.80	117.5250
678.93	117.4585
679.05	117.5938
679.17	117.8553
679.29	117.7871
679.41	117.7596
679.53	117.7610
679.65	117.9687
679.77	117.8032
679.89	117.4385
680.01	117.6938
680.14	117.9254
680.26	117.7270
680.38	117.6871
680.50	117.8883
680.62	117.5614
680.74	117.4153
680.86	117.6563
680.98	117.3728
681.10	117.5289
681.22	117.8468
681.35	118.0937
681.47	117.5051
681.59	117.8986
681.71	117.8976
681.83	117.4141
681.95	116.7751
682.07	117.1854
682.19	117.1055
682.31	116.6256
682.43	116.8853
682.56	117.2042
682.68	117.2739
682.80	117.0797
682.92	117.4051
683.04	117.4415
683.16	117.2349
683.28	117.1894
683.40	117.2506
683.52	117.2625
683.64	117.1833
683.76	117.3618
683.89	117.1323
684.01	117.1177
684.13	117.0774
684.25	116.9600
684.37	117.0306
684.49	116.9647
684.61	117.0960
684.73	117.2657
684.85	117.0675
684.97	117.1334
685.09	117.7346
685.21	117.5034
685.34	117.4768
685.46	117.7585
685.58	117.4603
685.70	117.3935
685.82	117.6469
685.94	117.6113
686.06	117.6068
686.18	117.8154
686.30	117.5721
686.42	117.6992
686.54	117.3381
686.66	117.3471
686.79	117.0291
686.91	116.9650
687.03	117.0496
687.15	117.4867
687.27	117.3150
687.39	117.7063
687.51	117.8452
687.63	117.5350
687.75	117.0642
687.87	117.3920
687.99	117.2175
688.11	116.9773
688.23	117.1604
688.35	117.5924
688.48	117.5401
688.60	117.4884
688.72	117.7664
688.84	117.8691
688.96	117.9928
689.08	117.4999
689.20	117.5850
689.32	117.6451
689.44	117.6907
689.56	117.4206
689.68	117.7766
689.80	117.8021
689.92	117.7332
690.04	117.5342
690.16	117.4710
690.28	117.8025
690.41	117.6627
690.53	117.2030
690.65	116.9134
690.77	116.9211
690.89	116.6006
691.01	116.7969
691.13	117.0521
691.25	117.3197
691.37	117.6940
691.49	117.3635
691.61	117.1958
691.73	117.5306
691.85	117.6018
691.97	116.9793
692.09	117.2696
692.21	117.1641
692.33	117.1904
692.45	117.1199
692.57	117.1727
692.70	117.4007
692.82	117.6097
692.94	117.2855
693.06	117.3277
693.18	117.7395
693.30	117.2926
693.42	117.2989
693.54	117.5163
693.66	117.7842
693.78	117.6147
693.90	118.0666
694.02	118.3405
694.14	118.2925
694.26	117.8157
694.38	117.8123
694.50	117.8317
694.62	117.7551
694.74	117.6594
694.86	117.8355
694.98	117.7538
695.10	117.7379
695.22	117.5174
695.34	117.5987
695.46	117.5431
695.58	117.6965
695.71	117.6434
695.83	117.4161
695.95	117.5530
696.07	117.7562
696.19	117.9093
696.31	117.6343
696.43	117.8816
696.55	117.8618
696.67	117.7986
696.79	117.6782
696.91	117.5110
697.03	117.5134
697.15	117.5824
697.27	117.2365
697.39	117.2797
697.51	117.6708
697.63	117.3865
697.75	117.2497
697.87	117.7177
697.99	117.6275
698.11	117.5886
698.23	117.8871
698.35	117.8129
698.47	117.8658
698.59	117.5986
698.71	117.6905
698.83	117.7752
698.95	117.8398
699.07	117.5704
699.19	117.9549
699.31	117.8288
699.43	117.9016
699.55	117.9698
699.67	118.0962
699.79	118.0357
699.91	118.0967
700.03	117.9395
700.15	117.8253
700.27	118.0189
700.39	117.9211
700.51	117.9662
700.63	117.9006
700.75	118.1516
700.87	117.8727
700.99	118.1562
701.11	118.0858
701.24	117.9010
701.36	117.6524
701.48	117.8511
701.60	117.4254
701.72	117.5755
701.84	118.0915
701.96	118.0162
702.08	117.7386
702.20	118.0543
702.32	118.1434
702.44	118.1515
702.56	118.3412
702.68	118.1838
702.80	118.1195
702.92	118.0990
703.04	118.0226
703.16	118.2785
703.28	118.6312
703.40	118.6038
703.52	118.4221
703.64	118.2184
703.76	117.9068
703.88	117.8326
704.00	117.6320
704.12	117.7021
704.24	117.7327
704.36	117.8860
704.48	117.7948
704.60	118.0142
704.72	117.6811
704.84	117.7047
704.96	117.7820
705.07	118.0068
705.19	117.8935
705.31	118.3346
705.43	118.1941
705.55	117.9481
705.67	117.9989
705.79	118.1585
705.91	117.8905
706.03	117.8685
706.15	118.0065
706.27	117.7069
706.39	117.7252
706.51	117.9005
706.63	118.0519
706.75	117.9252
706.87	118.1507
706.99	118.4241
707.11	118.4626
707.23	118.4672
707.35	118.3738
707.47	118.1577
707.59	117.9193
707.71	117.7568
707.83	117.8104
707.95	117.6141
708.07	117.6647
708.19	117.9828
708.31	118.0963
708.43	118.0303
708.55	118.4079
708.67	118.4520
708.79	118.1307
708.91	117.9760
709.03	118.1673
709.15	118.1126
709.27	118.1361
709.39	118.0417
709.51	118.1569
709.63	118.3103
709.75	118.2176
709.87	118.2228
709.99	118.3409
710.11	118.5418
710.23	117.9559
710.35	117.9743
710.47	118.0399
710.58	117.8795
710.70	117.6575
710.82	117.9718
710.94	117.9924
711.06	118.0510
711.18	117.8416
711.30	117.7448
711.42	117.7478
711.54	118.0867
711.66	117.9345
711.78	117.9155
711.90	118.1991
712.02	118.4784
712.14	117.9645
712.26	117.7550
712.38	118.2520
712.50	118.3008
712.62	118.1408
712.74	117.9813
712.86	118.3944
712.98	118.3103
713.10	117.9453
713.22	117.7153
713.34	118.0912
713.45	118.0160
713.57	117.8770
713.69	118.1000
713.81	118.4721
713.93	118.9401
714.05	118.7203
714.17	118.5857
714.29	118.7599
714.41	118.5515
714.53	118.1781
714.65	118.5460
714.77	118.4087
714.89	118.2709
715.01	118.2557
715.13	118.1801
715.25	118.1305
715.37	118.3121
715.49	118.2357
715.61	118.0497
715.72	118.2158
715.84	118.1881
715.96	118.1636
716.08	118.1711
716.20	118.4436
716.32	118.3484
716.44	118.2543
716.56	118.1065
716.68	118.0763
716.80	118.1291
716.92	118.1987
717.04	118.2189
717.16	118.6908
717.28	118.6036
717.40	118.4303
717.52	118.3989
717.63	118.4149
717.75	118.3879
717.87	118.6554
717.99	118.4806
718.11	118.2714
718.23	118.1059
718.35	118.2010
718.47	118.0491
718.59	118.3287
718.71	118.3762
718.83	118.7830
718.95	118.5577
719.07	118.6247
719.19	118.6162
719.30	118.7241
719.42	118.5253
719.54	118.5622
719.66	118.7790
719.78	118.7131
719.90	118.8189
720.02	118.6315
720.14	118.6167
720.26	118.3115
720.38	118.5050
720.50	118.1548
720.62	118.5244
720.74	118.4001
720.85	118.1026
720.97	118.0732
721.09	118.2069
721.21	117.9605
721.33	118.1819
721.45	118.4551
721.57	118.6518
721.69	118.4478
721.81	118.1588
721.93	118.2277
722.05	118.5405
722.16	118.2943
722.28	118.3791
722.40	118.4012
722.52	118.5558
722.64	118.3236
722.76	118.1677
722.88	118.6093
723.00	118.8721
723.12	118.9759
723.24	118.7113
723.36	118.6292
723.47	118.4756
723.59	118.4171
723.71	118.2730
723.83	118.5949
723.95	118.6075
724.07	118.2155
724.19	118.4606
724.31	118.5460
724.43	118.6825
724.55	118.2813
724.66	118.7831
724.78	118.8004
724.90	118.4938
725.02	118.2142
725.14	119.0799
725.26	118.8945
725.38	118.5826
725.50	118.4302
725.62	118.6790
725.74	118.8176
725.85	119.0303
725.97	117.9188
726.09	118.3689
726.21	118.5441
726.33	118.3268
726.45	118.1822
726.57	119.4909
726.69	119.0367
726.81	118.6756
726.92	118.3570
727.04	118.2661
727.16	118.1981
727.28	118.4632
727.40	118.0944
727.52	118.0662
727.64	118.2240
727.76	118.5528
727.88	118.5592
727.99	118.9761
728.11	119.1792
728.23	119.2060
728.35	118.8844
728.47	118.7667
728.59	119.0231
728.71	119.1077
728.83	118.9000
728.94	118.7966
729.06	118.8297
729.18	118.5653
729.30	118.2161
729.42	118.1312
729.54	118.3208
729.66	118.1858
729.78	118.1399
729.90	118.6706
730.01	118.8247
730.13	118.9465
730.25	118.9447
730.37	119.0716
730.49	118.7605
730.61	118.7013
730.73	118.6663
730.84	118.7358
730.96	118.9347
731.08	119.1672
731.20	118.6927
731.32	118.6725
731.44	118.7599
731.56	118.3488
731.68	118.1213
731.79	118.8321
731.91	118.6589
732.03	118.7537
732.15	119.0383
732.27	118.9627
732.39	119.0963
732.51	119.4747
732.62	119.1438
732.74	119.1662
732.86	119.4780
732.98	119.2454
733.10	118.6625
733.22	119.2355
733.34	119.0789
733.45	118.9280
733.57	118.8322
733.69	119.2066
733.81	118.9295
733.93	118.9245
734.05	118.9143
734.17	119.0585
734.28	119.3118
734.40	119.3853
734.52	119.0946
734.64	119.1589
734.76	119.3494
734.88	118.9734
735.00	118.4358
735.11	118.9222
735.23	119.1302
735.35	118.6267
735.47	118.7235
735.59	119.2217
735.71	118.9322
735.83	118.6115
735.94	118.9150
736.06	118.8655
736.18	118.8289
736.30	119.3671
736.42	119.5525
736.54	118.9839
736.65	119.2151
736.77	119.4301
736.89	118.5530
737.01	118.8138
737.13	119.4532
737.25	119.1619
737.36	118.8671
737.48	119.4980
737.60	119.1401
737.72	118.7424
737.84	118.9611
737.96	118.9685
738.08	119.2130
738.19	119.2132
738.31	119.6700
738.43	119.5529
738.55	119.8862
738.67	119.6843
738.79	119.6469
738.90	119.8204
739.02	120.0952
739.14	119.6841
739.26	119.3166
739.38	119.6338
739.50	119.4545
739.61	119.2653
739.73	119.3567
739.85	119.3877
739.97	119.5731
740.09	119.4976
740.20	119.3568
740.32	119.8491
740.44	120.1936
740.56	119.9049
740.68	119.9241
740.80	119.8275
740.91	119.3797
741.03	119.4382
741.15	119.1606
741.27	119.1326
741.39	119.1235
741.51	119.3152
741.62	119.3117
741.74	119.6316
741.86	119.7518
741.98	120.0325
742.10	119.9287
742.21	119.9748
742.33	119.5035
742.45	119.5026
742.57	119.3965
742.69	119.6247
742.80	119.6372
742.92	120.2281
743.04	119.9110
743.16	120.3235
743.28	120.2487
743.40	120.3484
743.51	120.2076
743.63	120.5285
743.75	120.1698
743.87	119.9791
743.99	119.6978
744.10	119.7628
744.22	119.5353
744.34	119.3836
744.46	119.6969
744.58	119.4730
744.69	119.3370
744.81	119.8559
744.93	119.7943
745.05	119.3422
745.17	119.7245
745.28	119.7698
745.40	119.5557
745.52	119.8045
745.64	120.2703
745.76	120.5282
745.87	120.3351
745.99	120.3548
746.11	120.4216
746.23	120.4379
746.35	119.5600
746.46	119.5774
746.58	119.4197
746.70	119.4417
746.82	119.5018
746.94	120.3090
747.05	120.6290
747.17	120.9791
747.29	120.4509
747.41	120.6092
747.53	120.5377
747.64	120.2912
747.76	119.7991
747.88	120.4034
748.00	120.3310
748.12	120.3830
748.23	120.3778
748.35	120.5232
748.47	120.6072
748.59	120.5202
748.70	120.3820
748.82	120.5642
748.94	120.5380
749.06	120.5819
749.18	120.2206
749.29	120.2609
749.41	120.4173
749.53	120.5197
749.65	120.6807
749.76	121.1370
749.88	120.9178
750.00	120.5331
750.12	120.5545
750.24	120.4296
750.35	119.9145
750.47	120.2093
750.59	120.1922
750.71	120.7127
750.82	120.7782
750.94	121.1148
751.06	121.1128
751.18	121.3890
751.30	120.7892
751.41	120.6461
751.53	120.7570
751.65	120.5127
751.77	120.4522
751.88	121.0569
752.00	120.7936
752.12	120.8242
752.24	121.0371
752.35	121.0105
752.47	120.3990
752.59	120.9346
752.71	120.4988
752.83	120.7544
752.94	120.7789
753.06	120.9736
753.18	120.7100
753.30	121.0929
753.41	120.8040
753.53	120.8966
753.65	121.2228
753.77	121.3488
753.88	121.2380
754.00	121.1224
754.12	121.3348
754.24	121.6563
754.35	121.3194
754.47	121.3107
754.59	121.6378
754.71	121.6643
754.82	120.9750
754.94	121.3276
755.06	121.4133
755.18	121.4591
755.29	121.1609
755.41	121.4278
755.53	121.4176
755.65	121.4557
755.76	120.9076
755.88	120.9052
756.00	121.0371
756.12	120.9172
756.23	120.3917
756.35	120.7498
756.47	121.2175
756.59	120.9936
756.70	121.2341
756.82	121.5629
756.94	121.5272
757.06	121.2787
757.17	121.5136
757.29	121.0849
757.41	121.2242
757.53	121.1916
757.64	120.9260
757.76	120.6863
757.88	120.9323
758.00	121.3439
758.11	121.4298
758.23	121.6915
758.35	121.6389
758.47	121.6697
758.58	121.2869
758.70	121.4987
758.82	121.2041
758.94	121.5127
759.05	121.6104
759.17	121.2890
759.29	121.0864
759.40	121.3399
759.52	120.8930
759.64	120.5166
759.76	120.9070
759.87	120.9962
759.99	121.3279
760.11	121.6398
760.23	121.8098
760.34	121.7762
760.46	121.7490
760.58	121.2556
760.70	121.1389
760.81	121.2621
760.93	121.4469
761.05	121.8445
761.16	122.1705
761.28	122.5368
761.40	122.1730
761.52	121.9275
761.63	121.6099
761.75	121.6233
761.87	121.4418
761.98	121.9573
762.10	122.0217
762.22	122.4168
762.34	122.1997
762.45	121.5978
762.57	121.7121
762.69	121.6796
762.81	121.6729
762.92	121.6790
763.04	121.8182
763.16	121.6506
763.27	121.7121
763.39	121.1559
763.51	121.2709
763.63	121.9623
763.74	121.9370
763.86	122.1103
763.98	122.0965
764.09	122.3295
764.21	122.0356
764.33	122.0688
764.44	121.8168
764.56	121.9822
764.68	121.9287
764.80	121.4578
764.91	121.5600
765.03	121.7493
765.15	121.9929
765.26	121.5069
765.38	121.9019
765.50	121.5916
765.62	121.3525
765.73	121.2569
765.85	121.3379
765.97	121.6025
766.08	121.9829
766.20	122.1893
766.32	121.8843
766.43	122.1348
766.55	122.0183
766.67	121.8746
766.79	121.9063
766.90	122.1954
767.02	122.3851
767.14	121.5287
767.25	121.4547
767.37	121.4553
767.49	121.0842
767.60	120.7353
767.72	121.6274
767.84	121.8669
767.95	121.7160
768.07	121.9542
768.19	122.1475
768.31	122.0904
768.42	121.8633
768.54	121.5726
768.66	121.4388
768.77	121.5739
768.89	121.4868
769.01	121.2533
769.12	121.5756
769.24	121.8356
769.36	121.8277
769.47	121.5786
769.59	121.7514
769.71	121.8127
769.82	122.0158
769.94	121.6876
770.06	122.1372
770.17	122.1807
770.29	121.8530
770.41	121.7397
770.53	121.9745
770.64	121.7443
770.76	121.6690
770.88	122.5367
770.99	122.5656
771.11	122.7016
771.23	122.5538
771.34	122.4118
771.46	121.9917
771.58	121.8561
771.69	121.5768
771.81	122.1497
771.93	122.0239
772.04	122.0118
772.16	121.9764
772.28	122.2482
772.39	121.8049
772.51	122.4873
772.63	122.6421
772.74	122.1280
772.86	122.3046
772.98	122.6090
773.09	122.3652
773.21	122.1972
773.33	123.0148
773.44	122.5322
773.56	122.1559
773.68	122.3980
773.79	122.5142
773.91	122.4825
774.03	122.3915
774.14	122.7859
774.26	122.9790
774.38	122.8062
774.49	122.4932
774.61	122.9002
774.73	122.8791
774.84	122.4262
774.96	122.7454
775.08	122.8811
775.19	122.6667
775.31	122.5964
775.43	122.8200
775.54	122.1114
775.66	122.4147
775.77	122.2242
775.89	122.0162
776.01	121.8244
776.12	122.7007
776.24	122.5778
776.36	122.5133
776.47	122.4122
776.59	122.5889
776.71	122.4222
776.82	122.3243
776.94	122.5196
777.06	123.0130
777.17	123.2183
777.29	122.8488
777.41	122.7671
777.52	122.5630
777.64	122.7517
777.75	122.6375
777.87	122.4727
777.99	122.2916
778.10	122.5980
778.22	122.2593
778.34	121.8484
778.45	122.1116
778.57	122.2641
778.69	121.8241
778.80	121.8891
778.92	122.2605
779.04	122.2928
779.15	122.1147
779.27	122.2890
779.38	122.3598
779.50	122.1865
779.62	122.6009
779.73	122.2798
779.85	122.7892
779.97	123.0811
780.08	122.9352
780.20	122.5622
780.31	123.2406
780.43	123.3314
780.55	122.7087
780.66	122.4263
780.78	122.8351
780.90	122.9982
781.01	122.8810
781.13	122.6428
781.25	123.3544
781.36	123.1264
781.48	122.4108
781.59	122.1223
781.71	122.9022
781.83	123.1646
781.94	122.5825
782.06	123.1022
782.18	123.9522
782.29	123.4541
782.41	122.8799
782.52	123.4218
782.64	123.6133
782.76	123.6476
782.87	123.3565
782.99	122.7344
783.10	122.9505
783.22	122.7321
783.34	121.8820
783.45	122.3233
783.57	122.6299
783.69	121.8393
783.80	121.5830
783.92	121.8520
784.03	121.8394
784.15	122.3091
784.27	122.8785
784.38	123.0452
784.50	123.1691
784.61	123.3942
784.73	123.5926
784.85	123.1428
784.96	123.0657
785.08	122.8793
785.19	122.9925
785.31	122.8204
785.43	122.7555
785.54	122.7655
785.66	122.4391
785.77	122.5656
785.89	122.4352
786.01	122.7979
786.12	122.5426
786.24	122.8132
786.35	122.5468
786.47	122.9237
786.59	122.9085
786.70	123.4807
786.82	123.3592
786.93	123.1780
787.05	122.8588
787.17	123.0950
787.28	122.6449
787.40	122.6908
787.51	123.1365
787.63	122.9171
787.75	122.4480
787.86	122.7510
787.98	122.9145
788.09	122.2600
788.21	122.3230
788.33	123.0804
788.44	122.8428
788.56	123.1267
788.67	123.3159
788.79	123.6874
788.91	123.6175
789.02	123.3223
789.14	122.8537
789.25	123.1224
789.37	122.8400
789.48	122.7247
789.60	122.9277
789.72	122.6881
789.83	122.9712
789.95	123.4235
790.06	122.7855
790.18	122.8540
790.30	123.0053
790.41	122.4703
790.53	122.1838
790.64	122.4610
790.76	122.7102
790.87	122.7151
790.99	122.8117
791.11	122.8967
791.22	122.7240
791.34	122.5854
791.45	122.8978
791.57	123.0946
791.68	122.3939
791.80	122.4778
791.92	122.7670
792.03	122.8060
792.15	122.6941
792.26	122.9928
792.38	123.0381
792.49	123.0198
792.61	123.1982
792.73	123.7459
792.84	125.7188
792.96	120.9613
793.07	121.4181
793.19	122.2926
793.30	122.5028
793.42	121.4424
793.54	125.4454
793.65	125.1928
793.77	124.5562
793.88	123.7635
794.00	123.1846
794.11	123.6636
794.23	123.6313
794.34	123.6584
794.46	122.7035
794.58	122.2623
794.69	123.4112
794.81	123.7886
794.92	122.3782
795.04	122.9727
795.15	123.2525
795.27	123.0217
795.39	122.7028
795.50	123.8716
795.62	124.3334
795.73	124.4767
795.85	123.5836
795.96	123.5947
796.08	123.4508
796.19	123.5343
796.31	123.5079
796.42	123.6847
796.54	123.9018
796.66	124.4843
796.77	123.8101
796.89	124.3827
797.00	124.9178
797.12	124.1289
797.23	123.2482
797.35	123.5890
797.46	122.8749
797.58	122.8639
797.69	123.1758
797.81	123.5628
797.93	123.7363
798.04	123.4130
798.16	123.4479
798.27	123.5476
798.39	123.6442
798.50	123.8161
798.62	123.5783
798.73	123.5319
798.85	123.4813
798.96	122.8869
799.08	122.6161
799.19	123.5096
799.31	123.8979
799.43	123.7837
799.54	123.5236
799.66	123.6920
799.77	124.1758
799.89	123.5741
800.00	122.9554
800.12	122.9664
800.23	123.3117
800.35	122.9812
800.46	122.6176
800.58	123.1320
800.69	123.7701
800.81	122.9841
800.92	123.0238
801.04	123.8984
801.16	124.2732
801.27	124.2423
801.39	124.6562
801.50	123.9630
801.62	123.2256
801.73	123.4294
801.85	123.2793
801.96	122.9132
802.08	124.0035
802.19	124.4219
802.31	123.4670
802.42	123.2948
802.54	124.0260
802.65	123.0166
802.77	123.6844
802.88	123.6286
803.00	124.3258
803.11	124.3303
803.23	124.5658
803.34	124.2306
803.46	124.4985
803.57	124.5711
803.69	123.8771
803.80	124.1479
803.92	123.7360
804.03	123.7127
804.15	123.0884
804.26	123.7942
804.38	123.3874
804.50	123.1016
804.61	123.1902
804.73	123.9214
804.84	123.5761
804.96	123.8061
805.07	123.9630
805.19	123.9123
805.30	123.5558
805.42	123.5388
805.53	123.7566
805.65	124.2516
805.76	124.4341
805.88	124.1271
805.99	124.3032
806.11	124.0081
806.22	123.6987
806.34	123.8857
806.45	123.6196
806.57	123.7676
806.68	123.5564
806.80	123.1723
806.91	123.4606
807.03	124.0269
807.14	123.9339
807.26	123.7464
807.37	124.4679
807.49	123.7551
807.60	123.0530
807.72	123.1300
807.83	123.8134
807.95	123.3747
808.06	123.1404
808.17	123.7209
808.29	123.1299
808.40	122.3957
808.52	121.9213
808.63	122.6746
808.75	122.2595
808.86	122.5307
808.98	122.8704
809.09	123.5886
809.21	123.2373
809.32	124.3357
809.44	124.2825
809.55	124.8285
809.67	124.2627
809.78	123.7564
809.90	123.3020
810.01	122.5724
810.13	122.5124
810.24	123.2583
810.36	123.9672
810.47	123.3767
810.59	123.5081
810.70	123.5657
810.82	123.4351
810.93	123.4910
811.05	123.8884
811.16	124.0835
811.27	122.7893
811.39	122.9365
811.50	123.7405
811.62	123.3712
811.73	123.5181
811.85	124.2731
811.96	124.0806
812.08	123.6175
812.19	124.0508
812.31	124.8821
812.42	125.0460
812.54	124.3408
812.65	123.7950
812.77	123.5414
812.88	122.9824
813.00	123.6016
813.11	124.2633
813.22	124.8212
813.34	124.0896
813.45	123.3002
813.57	123.2183
813.68	124.0094
813.80	124.2132
813.91	123.7695
814.03	124.9272
814.14	124.1574
814.26	122.9297
814.37	122.7385
814.49	123.9112
814.60	123.1380
814.71	123.6228
814.83	123.7183
814.94	122.8825
815.06	123.5235
815.17	124.7824
815.29	123.2871
815.40	123.8066
815.52	124.9202
815.63	124.0374
815.75	124.1629
815.86	125.5235
815.97	124.8525
816.09	123.8579
816.20	125.6128
816.32	124.4335
816.43	124.6683
816.55	123.6355
816.66	124.5837
816.78	123.5234
816.89	124.7433
817.00	125.2645
817.12	125.7492
817.23	125.1550
817.35	126.1529
817.46	123.9538
817.58	123.8746
817.69	124.8045
817.81	124.7065
817.92	123.2060
818.03	125.3311
818.15	125.1771
818.26	125.1897
818.38	129.3852
818.49	135.2831
818.61	115.8702
818.72	117.2202
818.83	123.7258
818.95	121.3457
819.06	114.7599
819.18	135.3051
819.29	133.3144
819.41	126.2836
819.52	124.8754
819.64	126.9597
819.75	126.5641
819.86	124.9024
819.98	125.3163
820.09	126.1301
820.21	123.6308
820.32	121.8337
820.44	125.2354
820.55	125.1588
820.66	124.5582
820.78	125.4630
820.89	127.4809
821.01	125.4438
821.12	127.1866
821.23	124.0592
821.35	123.6619
821.46	125.2072
821.58	126.5119
821.69	123.1680
821.81	124.9188
821.92	124.0194
822.03	124.4322
822.15	124.1730
822.26	124.4062
822.38	124.8912
822.49	125.9686
822.61	123.2646
822.72	122.7505
822.83	126.4304
822.95	125.7945
823.06	124.4052
823.18	125.0319
823.29	126.7635
823.40	129.2007
823.52	125.2049
823.63	127.6092
823.75	132.1595
823.86	127.0856
823.97	124.9456
824.09	130.2244
824.20	131.2753
824.32	126.7319
824.43	125.4647
824.55	125.9389
824.66	127.2835
824.77	122.8094
824.89	123.8937
825.00	127.1635
825.12	126.0059
825.23	127.2365
825.34	125.7226
825.46	124.6708
825.57	130.6354
825.69	128.7663
825.80	128.8693
825.91	130.1260
826.03	133.1405
826.14	125.8401
826.26	125.0841
826.37	121.6282
826.48	130.1074
826.60	126.1184
826.71	127.8746
826.83	120.6426
826.94	117.9437
827.05	116.6061
827.17	119.3154
827.28	122.8567
827.39	128.3494
827.51	132.0068
827.62	129.2268
827.74	136.2841
827.85	136.9876
827.96	123.8910
828.08	138.6632
828.19	177.0375
828.31	161.0124
828.42	147.4257
828.53	157.4619
828.65	61.9404
828.76	0.0000
828.87	0.0000
828.99	0.0000
