Wavelength (nm)	Reflectance (%)
377.35	0.0000
377.48	0.0000
377.62	0.0000
377.75	16.5106
377.88	0.0000
378.02	82.9524
378.15	200.0000
378.28	200.0000
378.41	61.1111
378.55	200.0000
378.68	0.0000
378.81	200.0000
378.95	200.0000
379.08	200.0000
379.21	200.0000
379.35	52.1290
379.48	167.0233
379.61	191.1448
379.74	129.7866
379.88	49.8415
380.01	81.7835
380.14	111.3166
380.28	62.5744
380.41	55.1832
380.54	134.8457
380.68	122.0728
380.81	68.6271
380.94	51.3754
381.07	79.4487
381.21	87.4386
381.34	34.3415
381.47	61.8099
381.61	125.3286
381.74	107.8986
381.87	32.7160
382.00	101.2788
382.14	128.1553
382.27	65.1860
382.40	43.7714
382.54	94.7712
382.67	103.5397
382.80	68.7587
382.93	93.4667
383.07	101.4680
383.20	91.7354
383.33	115.9685
383.47	74.9317
383.60	72.8148
383.73	100.5494
383.86	101.0547
384.00	58.2125
384.13	93.1914
384.26	105.1210
384.40	77.0594
384.53	62.5609
384.66	79.9607
384.79	96.8933
384.93	83.9621
385.06	60.6784
385.19	61.5795
385.33	65.8938
385.46	44.1113
385.59	57.7078
385.72	97.8306
385.86	92.2634
385.99	88.5270
386.12	90.0567
386.25	60.5322
386.39	64.8777
386.52	79.4934
386.65	73.3760
386.79	54.1782
386.92	90.2262
387.05	100.7301
387.18	76.2296
387.32	68.5124
387.45	109.2258
387.58	99.7101
387.71	80.3034
387.85	85.4170
387.98	83.0732
388.11	82.7111
388.25	70.6237
388.38	60.9124
388.51	73.4574
388.64	97.8429
388.78	100.0053
388.91	74.7861
389.04	98.4607
389.17	90.8474
389.31	56.3404
389.44	48.1830
389.57	82.0780
389.70	79.0602
389.84	86.6116
389.97	91.2096
390.10	96.0237
390.24	96.9459
390.37	72.6521
390.50	67.9771
390.63	72.5747
390.77	64.2613
390.90	66.3428
391.03	84.5525
391.16	77.3079
391.30	80.5154
391.43	96.0215
391.56	74.8188
391.69	78.5912
391.83	97.4678
391.96	75.7856
392.09	66.9087
392.22	96.4780
392.36	101.1866
392.49	71.5883
392.62	75.2183
392.75	82.5675
392.89	77.2418
393.02	80.7372
393.15	69.2879
393.28	90.7677
393.42	81.8031
393.55	80.5687
393.68	67.7536
393.81	90.1794
393.95	89.3861
394.08	85.6347
394.21	77.1450
394.34	76.2126
394.48	79.4836
394.61	70.2769
394.74	76.7320
394.87	75.5366
395.01	96.2478
395.14	82.5421
395.27	72.7363
395.40	81.1829
395.54	87.9146
395.67	64.8142
395.80	76.2362
395.93	89.9856
396.07	88.2959
396.20	83.1449
396.33	85.3504
396.46	88.3677
396.59	95.9583
396.73	78.1972
396.86	78.0670
396.99	95.6243
397.12	112.3911
397.26	63.2250
397.39	67.1862
397.52	85.1104
397.65	78.5118
397.79	49.8521
397.92	94.2010
398.05	107.4664
398.18	84.9034
398.32	74.0302
398.45	80.8336
398.58	84.5897
398.71	77.5029
398.84	75.5749
398.98	75.3644
399.11	81.3416
399.24	79.1385
399.37	79.9289
399.51	85.6511
399.64	87.2683
399.77	84.0032
399.90	87.8312
400.03	77.9632
400.17	71.9241
400.30	75.1522
400.43	74.3855
400.56	67.5710
400.70	83.2409
400.83	89.9579
400.96	89.6553
401.09	85.0833
401.23	87.5957
401.36	80.7820
401.49	80.7905
401.62	83.0928
401.75	89.6582
401.89	84.1278
402.02	82.7042
402.15	82.9272
402.28	85.9986
402.41	91.2646
402.55	82.3385
402.68	80.2690
402.81	88.5158
402.94	92.3568
403.08	81.3135
403.21	85.8134
403.34	96.4187
403.47	85.8637
403.60	73.1584
403.74	83.1535
403.87	88.1463
404.00	87.0007
404.13	95.2443
404.26	95.6962
404.40	90.7837
404.53	96.5819
404.66	84.5075
404.79	78.3308
404.93	91.4761
405.06	89.8938
405.19	81.0927
405.32	83.5640
405.45	91.1831
405.59	91.5799
405.72	68.0024
405.85	78.3162
405.98	91.3985
406.11	85.9138
406.25	71.1106
406.38	94.1117
406.51	91.9976
406.64	86.5848
406.77	82.0714
406.91	90.1248
407.04	91.5124
407.17	89.5009
407.30	78.9012
407.43	79.3345
407.57	85.3432
407.70	88.0755
407.83	91.0297
407.96	89.5188
408.09	99.3555
408.23	101.6142
408.36	85.0976
408.49	81.5894
408.62	99.7744
408.75	94.3057
408.89	88.0087
409.02	94.6696
409.15	94.0243
409.28	96.6973
409.41	84.3613
409.55	83.4165
409.68	97.7164
409.81	95.5770
409.94	85.2841
410.07	101.7476
410.20	103.2405
410.34	96.7257
410.47	95.0408
410.60	100.1038
410.73	94.8261
410.86	96.3778
411.00	96.6697
411.13	99.1192
411.26	91.9064
411.39	93.0583
411.52	89.8883
411.66	92.0135
411.79	90.7241
411.92	95.8396
412.05	96.4584
412.18	93.5918
412.31	88.9827
412.45	99.3898
412.58	99.8252
412.71	91.8685
412.84	99.3860
412.97	105.9248
413.11	98.0583
413.24	88.0040
413.37	99.6449
413.50	101.6047
413.63	95.2911
413.76	94.5598
413.90	105.8521
414.03	102.8960
414.16	99.0252
414.29	92.0000
414.42	97.4655
414.56	95.3843
414.69	94.7700
414.82	91.7097
414.95	100.0000
415.08	92.9167
415.21	101.3685
415.35	98.9135
415.48	96.2874
415.61	107.5780
415.74	112.3646
415.87	91.4630
416.00	96.4320
416.14	107.7279
416.27	100.0141
416.40	96.9354
416.53	110.0027
416.66	113.9252
416.79	104.9017
416.93	103.1736
417.06	106.1528
417.19	107.5210
417.32	108.0051
417.45	103.4962
417.58	103.6379
417.72	102.3015
417.85	95.3265
417.98	93.6286
418.11	101.7925
418.24	101.8925
418.37	103.9780
418.51	102.7228
418.64	98.9609
418.77	103.9208
418.90	103.9160
419.03	96.5063
419.16	107.3918
419.29	114.9541
419.43	97.7526
419.56	96.1885
419.69	106.8858
419.82	104.0908
419.95	97.9961
420.08	102.3033
420.22	102.5175
420.35	99.5080
420.48	105.0321
420.61	99.6179
420.74	109.7413
420.87	114.6757
421.00	110.2613
421.14	98.4957
421.27	103.3321
421.40	102.1672
421.53	100.7119
421.66	104.1602
421.79	108.9045
421.93	113.1174
422.06	108.7175
422.19	105.9901
422.32	106.7159
422.45	111.1435
422.58	104.3236
422.71	102.1250
422.85	106.7667
422.98	108.1959
423.11	105.4661
423.24	107.5495
423.37	109.8683
423.50	107.8222
423.63	107.4162
423.77	105.5353
423.90	102.5107
424.03	104.5852
424.16	108.1739
424.29	108.6978
424.42	112.0184
424.55	113.5679
424.69	113.0891
424.82	113.5897
424.95	108.1995
425.08	106.6732
425.21	108.7950
425.34	107.7627
425.47	106.5788
425.60	110.4389
425.74	110.1387
425.87	108.4965
426.00	111.0895
426.13	110.3198
426.26	110.5994
426.39	106.1394
426.52	108.7104
426.66	112.7992
426.79	103.8477
426.92	99.6192
427.05	106.3844
427.18	107.2388
427.31	103.6367
427.44	108.7373
427.57	115.0356
427.71	112.7821
427.84	106.4834
427.97	103.9369
428.10	109.8306
428.23	114.8212
428.36	107.5219
428.49	106.0323
428.62	109.1989
428.76	110.5607
428.89	103.0692
429.02	104.0072
429.15	111.2386
429.28	110.9776
429.41	107.1760
429.54	104.3384
429.67	111.1055
429.81	113.0006
429.94	107.9906
430.07	101.4639
430.20	106.1879
430.33	106.9836
430.46	104.4556
430.59	110.7905
430.72	115.0425
430.85	115.6958
430.99	111.4996
431.12	107.0825
431.25	107.0428
431.38	110.6648
431.51	104.0898
431.64	104.8991
431.77	110.8595
431.90	112.0607
432.03	108.8488
432.17	111.0183
432.30	114.2814
432.43	111.8387
432.56	108.4640
432.69	106.1815
432.82	109.0022
432.95	108.2915
433.08	109.3735
433.21	109.3449
433.35	113.5819
433.48	112.0439
433.61	113.0641
433.74	110.0011
433.87	112.5646
434.00	111.0739
434.13	110.3252
434.26	107.1269
434.39	110.6751
434.53	108.8814
434.66	110.5259
434.79	106.5868
434.92	110.8766
435.05	110.8636
435.18	105.8332
435.31	103.8140
435.44	109.8037
435.57	111.4342
435.70	108.8668
435.84	106.8200
435.97	109.3414
436.10	110.1401
436.23	105.6508
436.36	105.2163
436.49	111.1408
436.62	107.7988
436.75	105.4135
436.88	105.5156
437.01	109.5119
437.14	109.7228
437.28	106.5365
437.41	104.1049
437.54	107.5917
437.67	109.8808
437.80	102.0303
437.93	103.2796
438.06	110.4118
438.19	110.1354
438.32	105.0455
438.45	109.0318
438.58	111.2812
438.72	109.7472
438.85	107.3013
438.98	106.5524
439.11	108.8116
439.24	108.8918
439.37	104.1465
439.50	105.4492
439.63	108.1699
439.76	109.7484
439.89	109.7691
440.02	109.0873
440.15	109.3147
440.29	111.2199
440.42	108.7068
440.55	105.1876
440.68	111.2905
440.81	112.5655
440.94	106.0797
441.07	107.1766
441.20	112.6428
441.33	109.5651
441.46	106.9588
441.59	110.9610
441.72	112.0440
441.85	110.1099
441.99	107.3161
442.12	106.6636
442.25	106.8496
442.38	109.1111
442.51	109.0648
442.64	111.2010
442.77	113.0792
442.90	113.8996
443.03	111.3718
443.16	108.4463
443.29	109.9808
443.42	108.3533
443.55	107.8784
443.68	107.9518
443.82	111.6626
443.95	108.7021
444.08	109.1695
444.21	107.5447
444.34	107.2006
444.47	106.3703
444.60	108.9579
444.73	106.5791
444.86	107.1926
444.99	108.1342
445.12	109.8818
445.25	107.9134
445.38	109.5962
445.51	111.7817
445.64	115.2532
445.78	108.6438
445.91	107.4366
446.04	111.8489
446.17	108.7732
446.30	104.0718
446.43	111.0484
446.56	114.0956
446.69	108.3332
446.82	107.0015
446.95	108.7791
447.08	109.2350
447.21	107.0969
447.34	107.9222
447.47	110.3229
447.60	107.5137
447.73	106.0355
447.86	107.6224
447.99	108.0720
448.13	109.5319
448.26	110.2762
448.39	108.4676
448.52	109.3543
448.65	109.9769
448.78	107.0102
448.91	109.4727
449.04	109.4391
449.17	107.9451
449.30	108.8657
449.43	107.4313
449.56	105.8244
449.69	109.9181
449.82	108.8448
449.95	106.4693
450.08	109.6154
450.21	110.5588
450.34	106.8049
450.47	108.7128
450.60	111.4251
450.73	112.6541
450.87	111.3991
451.00	106.7557
451.13	107.9067
451.26	106.1687
451.39	104.3250
451.52	104.5546
451.65	110.2435
451.78	110.9142
451.91	108.6824
452.04	106.6654
452.17	109.2936
452.30	109.8089
452.43	105.7346
452.56	110.3750
452.69	109.7662
452.82	107.4342
452.95	108.4660
453.08	107.6664
453.21	106.8000
453.34	109.2419
453.47	106.2521
453.60	104.1432
453.73	106.9140
453.86	105.3102
453.99	105.9696
454.12	108.3672
454.25	109.8864
454.38	108.9665
454.52	109.4385
454.65	109.7544
454.78	109.2702
454.91	108.1169
455.04	109.5403
455.17	106.5539
455.30	106.5413
455.43	109.1631
455.56	107.9196
455.69	105.7265
455.82	109.5377
455.95	108.9034
456.08	107.6311
456.21	109.0355
456.34	109.2909
456.47	108.5671
456.60	108.5546
456.73	106.6078
456.86	106.6787
456.99	108.1406
457.12	106.3091
457.25	105.4295
457.38	106.4463
457.51	106.3296
457.64	105.7144
457.77	107.1232
457.90	107.5730
458.03	107.7739
458.16	106.9629
458.29	107.7039
458.42	108.4567
458.55	109.3927
458.68	107.6335
458.81	104.4679
458.94	106.0688
459.07	107.3646
459.20	106.2428
459.33	105.2622
459.46	108.4603
459.59	108.5793
459.72	105.3352
459.85	104.8349
459.98	108.0519
460.11	109.8019
460.24	105.9306
460.37	106.6984
460.50	108.2726
460.63	107.9361
460.76	104.8434
460.89	105.7725
461.02	107.4093
461.15	107.1288
461.28	104.4382
461.41	106.9620
461.54	108.0917
461.67	106.2626
461.80	106.1964
461.93	107.2257
462.06	106.7847
462.19	107.7683
462.32	106.8879
462.45	106.9704
462.58	107.8411
462.71	108.3467
462.84	106.3160
462.97	106.7313
463.10	105.3797
463.23	105.3060
463.36	105.6819
463.49	105.7110
463.62	106.4420
463.75	107.6277
463.88	109.8901
464.01	106.0693
464.14	107.4975
464.27	108.9438
464.40	107.7987
464.53	105.8039
464.66	107.2959
464.79	107.2301
464.92	105.8265
465.05	106.0286
465.18	105.9929
465.31	107.3113
465.44	107.0789
465.57	104.4371
465.70	105.3130
465.83	107.2145
465.96	105.7996
466.09	104.8257
466.22	108.3002
466.35	108.5664
466.48	107.1083
466.61	107.3216
466.74	106.9577
466.87	105.9395
467.00	104.4480
467.13	105.3378
467.26	106.9690
467.39	107.6979
467.52	106.0753
467.65	107.0985
467.78	105.8744
467.91	104.5546
468.04	104.6743
468.17	107.3056
468.30	107.5574
468.43	107.2594
468.56	106.7639
468.69	107.9436
468.82	107.3835
468.95	107.3510
469.08	108.4292
469.21	107.6804
469.34	105.4831
469.47	106.4456
469.60	106.2938
469.73	105.1267
469.86	108.2423
469.99	109.5493
470.11	107.3803
470.24	106.9314
470.37	108.0731
470.50	107.2189
470.63	106.1791
470.76	105.7746
470.89	107.4981
471.02	107.8811
471.15	105.4666
471.28	104.7825
471.41	106.6779
471.54	106.6185
471.67	104.3903
471.80	105.4950
471.93	107.4017
472.06	108.4032
472.19	105.5918
472.32	106.2372
472.45	107.1853
472.58	106.6760
472.71	105.6274
472.84	107.8154
472.97	107.4857
473.10	108.0394
473.23	106.8431
473.36	106.1831
473.49	105.5570
473.62	105.8902
473.74	105.3871
473.87	107.2322
474.00	107.2866
474.13	106.7240
474.26	107.3288
474.39	107.1014
474.52	105.6574
474.65	106.9116
474.78	107.8771
474.91	106.0723
475.04	105.7904
475.17	106.7400
475.30	105.4092
475.43	105.2094
475.56	106.9603
475.69	108.0772
475.82	107.1366
475.95	107.9953
476.08	108.1247
476.21	107.8736
476.34	106.0550
476.46	107.0480
476.59	106.7019
476.72	106.8115
476.85	105.6642
476.98	105.8458
477.11	106.3012
477.24	105.8393
477.37	104.9747
477.50	106.3416
477.63	107.0871
477.76	106.6018
477.89	106.3060
478.02	106.2387
478.15	106.1232
478.28	106.5598
478.41	105.2776
478.54	106.0219
478.66	106.5090
478.79	106.4918
478.92	105.8000
479.05	106.8009
479.18	106.0803
479.31	106.2765
479.44	106.0760
479.57	105.9947
479.70	106.6659
479.83	107.4669
479.96	105.6526
480.09	105.1590
480.22	105.5195
480.35	104.9365
480.48	104.8221
480.60	105.6819
480.73	106.4104
480.86	106.5502
480.99	106.2764
481.12	105.2316
481.25	106.5109
481.38	106.5473
481.51	105.7262
481.64	105.8883
481.77	107.0209
481.90	106.6042
482.03	105.6877
482.16	106.3433
482.29	106.4303
482.41	106.6126
482.54	106.5980
482.67	107.0699
482.80	107.4581
482.93	106.8405
483.06	106.1840
483.19	106.3415
483.32	106.7004
483.45	105.9472
483.58	105.8484
483.71	105.7119
483.84	105.3198
483.97	105.0556
484.09	105.1677
484.22	105.8759
484.35	106.0308
484.48	105.8509
484.61	105.9109
484.74	106.1899
484.87	105.8970
485.00	106.1966
485.13	106.1758
485.26	106.6203
485.39	105.6868
485.52	105.3195
485.64	104.7473
485.77	105.3622
485.90	104.9909
486.03	106.0324
486.16	106.2255
486.29	106.3882
486.42	106.1782
486.55	105.6706
486.68	105.0983
486.81	105.6244
486.94	105.5097
487.06	104.9513
487.19	105.4335
487.32	105.9359
487.45	105.5818
487.58	106.2588
487.71	106.5015
487.84	106.1237
487.97	105.7560
488.10	106.1161
488.23	105.2509
488.35	105.5264
488.48	105.9319
488.61	106.1255
488.74	105.8345
488.87	105.5390
489.00	105.5121
489.13	105.7455
489.26	105.6657
489.39	105.5449
489.52	106.2554
489.64	105.9671
489.77	105.5877
489.90	105.2738
490.03	105.4528
490.16	105.6584
490.29	105.3067
490.42	105.6600
490.55	105.7589
490.68	106.1721
490.81	105.2538
490.93	105.6090
491.06	105.4669
491.19	105.2853
491.32	105.0612
491.45	105.6157
491.58	105.8173
491.71	106.0618
491.84	105.7759
491.97	105.5685
492.09	106.0611
492.22	105.7832
492.35	105.5758
492.48	106.3574
492.61	106.0056
492.74	105.5779
492.87	105.8869
493.00	105.4090
493.12	105.0956
493.25	105.6128
493.38	106.0542
493.51	105.6268
493.64	105.8106
493.77	105.8725
493.90	105.2400
494.03	104.6934
494.16	105.1650
494.28	105.6696
494.41	105.0674
494.54	105.2807
494.67	105.9874
494.80	105.7127
494.93	105.4018
495.06	106.1765
495.19	106.6671
495.31	106.4150
495.44	106.2869
495.57	106.4334
495.70	106.6802
495.83	106.6107
495.96	105.8363
496.09	105.6373
496.22	106.1592
496.34	105.9010
496.47	105.2746
496.60	105.4235
496.73	106.0461
496.86	105.1026
496.99	105.1334
497.12	105.4445
497.24	105.5677
497.37	105.4496
497.50	105.8859
497.63	105.1976
497.76	104.8048
497.89	105.6544
498.02	105.6302
498.15	105.3044
498.27	105.5391
498.40	105.9939
498.53	105.3456
498.66	105.6794
498.79	105.7170
498.92	105.8045
499.05	105.8973
499.17	105.2911
499.30	104.8632
499.43	105.3575
499.56	105.2574
499.69	105.0887
499.82	105.8104
499.95	106.0655
500.07	105.8252
500.20	105.2931
500.33	105.4745
500.46	105.8146
500.59	105.6210
500.72	105.2780
500.85	105.7984
500.97	106.2196
501.10	105.9685
501.23	105.3275
501.36	105.3253
501.49	105.7067
501.62	104.7293
501.75	104.9019
501.87	105.3798
502.00	105.3730
502.13	105.3421
502.26	105.6234
502.39	105.4609
502.52	105.3202
502.64	104.9431
502.77	104.7131
502.90	105.1676
503.03	105.0652
503.16	104.7749
503.29	105.2514
503.42	105.5794
503.54	105.5180
503.67	104.9674
503.80	105.9671
503.93	106.1868
504.06	105.5132
504.19	105.3245
504.31	105.5582
504.44	104.9493
504.57	105.1099
504.70	105.3185
504.83	105.2601
504.96	105.3846
505.08	104.7900
505.21	104.3123
505.34	104.5729
505.47	104.6427
505.60	104.8008
505.73	104.8059
505.85	105.1970
505.98	105.4983
506.11	105.4752
506.24	105.2988
506.37	105.5786
506.50	105.5364
506.62	105.2565
506.75	104.8881
506.88	105.2377
507.01	105.4399
507.14	105.2831
507.27	105.1786
507.39	105.6057
507.52	104.9271
507.65	105.2352
507.78	104.9712
507.91	104.8439
508.04	104.6320
508.16	104.9786
508.29	105.2461
508.42	105.6654
508.55	105.1643
508.68	105.3008
508.81	105.4291
508.93	104.8756
509.06	104.5391
509.19	105.2948
509.32	105.0078
509.45	105.0188
509.57	105.0676
509.70	105.2352
509.83	104.9769
509.96	105.1606
510.09	105.0317
510.22	105.2262
510.34	104.8136
510.47	104.9794
510.60	104.9453
510.73	104.8975
510.86	104.8305
510.98	104.9240
511.11	104.7089
511.24	104.8951
511.37	104.9816
511.50	104.8815
511.63	105.1434
511.75	105.1392
511.88	104.9601
512.01	104.8624
512.14	104.9242
512.27	104.9578
512.39	104.9775
512.52	105.0499
512.65	105.1079
512.78	104.8192
512.91	104.4823
513.03	104.2503
513.16	104.2045
513.29	103.9864
513.42	103.8677
513.55	104.3615
513.67	104.8010
513.80	104.5421
513.93	104.4095
514.06	104.7229
514.19	104.2270
514.31	104.2288
514.44	104.2413
514.57	104.0461
514.70	104.2311
514.83	104.5915
514.95	104.3779
515.08	104.5143
515.21	104.9219
515.34	104.9553
515.47	104.7866
515.59	104.7699
515.72	104.3482
515.85	104.4547
515.98	104.0491
516.11	103.7702
516.23	103.9040
516.36	104.4762
516.49	104.1085
516.62	103.9329
516.75	104.6487
516.87	104.5551
517.00	103.8402
517.13	104.0216
517.26	104.7670
517.39	104.1514
517.51	103.5654
517.64	104.2814
517.77	104.1859
517.90	103.8089
518.02	104.2093
518.15	104.5168
518.28	104.1554
518.41	104.0524
518.54	103.9454
518.66	103.8465
518.79	103.9772
518.92	103.9196
519.05	103.7208
519.18	103.7044
519.30	103.4869
519.43	103.4819
519.56	103.2852
519.69	103.6809
519.81	103.8041
519.94	103.6323
520.07	103.4952
520.20	103.6661
520.33	103.6561
520.45	103.5121
520.58	103.4606
520.71	103.5111
520.84	103.7474
520.96	103.8015
521.09	103.5489
521.22	103.5319
521.35	103.7911
521.48	103.7842
521.60	103.4949
521.73	103.1044
521.86	103.3902
521.99	103.4007
522.11	103.0829
522.24	103.3359
522.37	103.4742
522.50	103.7737
522.62	103.5486
522.75	103.7988
522.88	103.6207
523.01	103.8833
523.14	103.2539
523.26	103.5794
523.39	103.1881
523.52	103.2373
523.65	103.3781
523.77	103.4446
523.90	102.9709
524.03	103.2156
524.16	103.2628
524.28	103.1994
524.41	103.6892
524.54	103.9335
524.67	103.6855
524.79	103.3279
524.92	103.5832
525.05	103.0802
525.18	103.2459
525.31	102.8586
525.43	103.3522
525.56	103.6308
525.69	103.6236
525.82	103.2091
525.94	103.9696
526.07	103.9522
526.20	103.2763
526.33	103.3090
526.45	103.4376
526.58	103.3871
526.71	102.9593
526.84	103.2598
526.96	103.2267
527.09	103.3342
527.22	103.5603
527.35	103.5060
527.47	103.6777
527.60	103.7031
527.73	103.4713
527.86	103.2534
527.98	103.7223
528.11	103.2550
528.24	103.5962
528.37	103.6707
528.49	103.2642
528.62	103.4891
528.75	103.7732
528.88	103.4889
529.00	103.7327
529.13	104.1704
529.26	103.4400
529.39	103.1803
529.51	103.5375
529.64	103.4624
529.77	103.1456
529.90	103.4366
530.02	103.8204
530.15	103.5884
530.28	103.4596
530.40	103.5289
530.53	103.7193
530.66	103.2401
530.79	103.2234
530.91	103.1702
531.04	103.3225
531.17	103.1231
531.30	103.4240
531.42	102.9461
531.55	103.2736
531.68	103.4630
531.81	103.4421
531.93	103.6136
532.06	103.9271
532.19	103.5115
532.31	103.1328
532.44	103.3750
532.57	103.1328
532.70	103.0224
532.82	102.8791
532.95	102.7703
533.08	102.6568
533.21	102.8182
533.33	103.0055
533.46	102.8082
533.59	103.2351
533.71	103.4082
533.84	103.4001
533.97	103.3808
534.10	103.7561
534.22	103.6528
534.35	103.1565
534.48	103.0931
534.61	103.2205
534.73	103.1411
534.86	102.8704
534.99	103.2003
535.11	103.2702
535.24	103.3390
535.37	103.6656
535.50	103.7073
535.62	103.4777
535.75	103.4287
535.88	103.1818
536.00	102.8340
536.13	102.9232
536.26	103.2007
536.39	102.8791
536.51	103.0238
536.64	103.3188
536.77	103.2803
536.89	103.0252
537.02	103.3039
537.15	103.1339
537.28	103.1344
537.40	102.9428
537.53	102.9248
537.66	102.9699
537.78	103.2104
537.91	103.1537
538.04	103.7580
538.17	103.6673
538.29	103.2637
538.42	103.0878
538.55	103.2344
538.67	102.9121
538.80	103.4490
538.93	103.5891
539.05	103.5382
539.18	103.2871
539.31	103.5364
539.44	103.2002
539.56	103.4613
539.69	103.8751
539.82	104.1388
539.94	103.5684
540.07	103.6154
540.20	103.5537
540.32	103.1276
540.45	102.6619
540.58	103.2745
540.71	103.5481
540.83	103.6851
540.96	103.5536
541.09	103.6297
541.21	103.6307
541.34	103.5200
541.47	103.3009
541.59	103.2015
541.72	103.4628
541.85	103.6201
541.98	103.5485
542.10	103.2155
542.23	103.5723
542.36	103.6320
542.48	103.4297
542.61	103.3011
542.74	103.8022
542.86	103.9853
542.99	103.8590
543.12	103.8497
543.24	103.8362
543.37	103.8357
543.50	103.6424
543.62	103.8743
543.75	103.9352
543.88	103.9221
544.01	103.7115
544.13	103.7997
544.26	103.6093
544.39	103.2968
544.51	103.2661
544.64	103.5207
544.77	103.3036
544.89	103.4480
545.02	103.3890
545.15	103.1401
545.27	103.0750
545.40	103.1382
545.53	103.1619
545.65	103.5209
545.78	103.8584
545.91	103.6410
546.03	103.8193
546.16	103.6961
546.29	103.4526
546.41	103.6169
546.54	103.5782
546.67	103.2661
546.79	103.5020
546.92	103.4812
547.05	103.3686
547.17	103.4921
547.30	103.8271
547.43	103.5052
547.56	103.6180
547.68	103.5548
547.81	103.5717
547.94	103.5057
548.06	103.2886
548.19	103.3208
548.32	103.4766
548.44	103.3431
548.57	103.0103
548.70	103.2045
548.82	103.1832
548.95	103.2302
549.08	102.9782
549.20	103.1589
549.33	103.2693
549.45	103.4594
549.58	103.1518
549.71	103.7771
549.83	103.7591
549.96	103.5854
550.09	103.1816
550.21	103.4087
550.34	103.1145
550.47	103.4660
550.59	103.4709
550.72	103.1961
550.85	103.1969
550.97	103.4105
551.10	102.8957
551.23	102.9138
551.35	103.4560
551.48	103.5575
551.61	103.1801
551.73	103.3400
551.86	103.4620
551.99	103.0549
552.11	102.6984
552.24	102.9825
552.37	103.0392
552.49	102.9672
552.62	103.2212
552.75	103.4424
552.87	103.3125
553.00	103.3323
553.12	103.1656
553.25	102.8924
553.38	102.7137
553.50	102.8929
553.63	102.7345
553.76	102.8810
553.88	103.2290
554.01	103.2199
554.14	102.8863
554.26	103.1901
554.39	103.1953
554.52	103.1394
554.64	103.0873
554.77	103.1076
554.89	102.7963
555.02	102.6929
555.15	102.5460
555.27	102.3486
555.40	102.5980
555.53	102.9088
555.65	102.8426
555.78	102.7454
555.91	103.1928
556.03	103.2506
556.16	102.8894
556.29	102.6926
556.41	102.9969
556.54	102.9505
556.66	102.4113
556.79	102.5414
556.92	103.1302
557.04	102.9388
557.17	102.7424
557.30	103.0744
557.42	102.9198
557.55	102.6525
557.67	102.5701
557.80	102.5109
557.93	102.7087
558.05	102.7421
558.18	102.4955
558.31	102.3169
558.43	102.3914
558.56	102.3148
558.68	102.2733
558.81	102.1067
558.94	102.4609
559.06	102.4889
559.19	102.3823
559.32	102.3892
559.44	102.7041
559.57	102.5528
559.69	102.3046
559.82	102.2089
559.95	102.4473
560.07	102.4087
560.20	102.1975
560.33	102.4920
560.45	102.1818
560.58	102.0958
560.70	102.1107
560.83	102.2118
560.96	101.8743
561.08	102.3111
561.21	102.4400
561.33	102.0961
561.46	102.2094
561.59	102.4645
561.71	102.4278
561.84	102.1870
561.97	102.7392
562.09	102.8076
562.22	102.6516
562.34	102.6233
562.47	102.6662
562.60	102.4994
562.72	102.2893
562.85	102.4000
562.97	102.3653
563.10	102.4063
563.23	102.2485
563.35	102.2099
563.48	102.0021
563.60	102.1133
563.73	102.0750
563.86	102.1278
563.98	102.3447
564.11	102.2598
564.23	102.1420
564.36	102.0436
564.49	102.1989
564.61	102.1908
564.74	102.2675
564.86	102.2275
564.99	102.1511
565.12	102.1334
565.24	102.0635
565.37	102.1266
565.49	102.2084
565.62	102.6070
565.75	102.0337
565.87	101.9491
566.00	102.3027
566.12	102.0271
566.25	101.8633
566.38	102.1760
566.50	102.1814
566.63	102.0081
566.75	102.2797
566.88	102.1530
567.01	102.3222
567.13	102.5312
567.26	102.2751
567.38	102.3004
567.51	102.2725
567.64	102.1996
567.76	102.1533
567.89	102.4170
568.01	102.2570
568.14	102.3046
568.26	102.4001
568.39	102.2710
568.52	102.2274
568.64	102.3476
568.77	102.3498
568.89	102.4684
569.02	102.5625
569.15	102.3934
569.27	102.1137
569.40	102.0169
569.52	101.8619
569.65	101.8427
569.77	101.9933
569.90	101.9158
570.03	102.1278
570.15	102.1552
570.28	102.3919
570.40	102.3906
570.53	102.5936
570.66	102.5223
570.78	102.5984
570.91	102.2901
571.03	102.2546
571.16	102.4429
571.28	102.4162
571.41	102.5031
571.54	102.5292
571.66	102.5487
571.79	102.5870
571.91	102.5542
572.04	102.2203
572.16	102.3500
572.29	102.4119
572.42	102.4300
572.54	102.4023
572.67	102.7081
572.79	102.7307
572.92	102.7798
573.04	102.9380
573.17	103.2289
573.29	102.8616
573.42	102.6996
573.55	102.6750
573.67	102.5797
573.80	102.5930
573.92	102.7386
574.05	102.7954
574.17	102.8652
574.30	102.9606
574.43	102.7303
574.55	102.9914
574.68	103.1292
574.80	103.2173
574.93	103.1703
575.05	103.3049
575.18	103.1344
575.30	102.9559
575.43	102.9971
575.56	102.9643
575.68	103.0448
575.81	102.9754
575.93	103.0870
576.06	103.0942
576.18	103.1109
576.31	102.6701
576.43	102.7501
576.56	102.7899
576.69	102.8015
576.81	102.7958
576.94	103.1606
577.06	103.3235
577.19	103.3070
577.31	102.9822
577.44	102.9905
577.56	102.8580
577.69	102.9565
577.82	103.3408
577.94	103.4103
578.07	103.2723
578.19	103.6983
578.32	103.7050
578.44	103.3871
578.57	103.6723
578.69	103.6769
578.82	103.2965
578.94	103.1829
579.07	103.1763
579.19	103.0624
579.32	103.3384
579.45	103.6186
579.57	103.5788
579.70	103.7524
579.82	103.6308
579.95	103.6294
580.07	103.4914
580.20	103.6011
580.32	103.5694
580.45	103.7553
580.57	103.6207
580.70	103.5365
580.82	103.9494
580.95	103.7438
581.08	103.8232
581.20	103.8129
581.33	103.9527
581.45	103.3454
581.58	103.7645
581.70	103.6489
581.83	103.6429
581.95	103.7313
582.08	104.0487
582.20	103.9239
582.33	104.0600
582.45	104.0373
582.58	103.9866
582.70	103.9763
582.83	103.9136
582.95	103.9119
583.08	103.9604
583.21	104.1244
583.33	104.4782
583.46	104.5291
583.58	104.4069
583.71	104.6023
583.83	104.5671
583.96	104.2061
584.08	104.1526
584.21	104.3845
584.33	104.5127
584.46	104.3029
584.58	104.1994
584.71	104.3865
584.83	104.4801
584.96	104.2348
585.08	104.2502
585.21	104.4747
585.33	104.3641
585.46	104.3988
585.58	104.5870
585.71	104.5927
585.83	104.7065
585.96	104.6429
586.08	104.4340
586.21	104.5970
586.33	104.7254
586.46	104.6829
586.59	104.7787
586.71	104.8069
586.84	104.7442
586.96	104.8692
587.09	104.4956
587.21	104.4998
587.34	104.6860
587.46	104.4470
587.59	104.4328
587.71	104.9634
587.84	105.1141
587.96	104.8417
588.09	104.9369
588.21	104.8923
588.34	104.7619
588.46	104.8079
588.59	105.1197
588.71	105.2250
588.84	104.9555
588.96	104.9183
589.09	105.0198
589.21	105.0564
589.34	104.9402
589.46	105.2361
589.59	105.5048
589.71	105.4611
589.84	105.2864
589.96	105.3345
590.09	105.3928
590.21	105.2186
590.34	105.3924
590.46	105.5193
590.59	105.4329
590.71	105.6975
590.84	105.5639
590.96	105.3653
591.09	105.4724
591.21	105.8994
591.34	105.4693
591.46	105.5255
591.59	105.3457
591.71	105.4479
591.83	105.2031
591.96	105.5206
592.08	105.6515
592.21	105.9413
592.33	105.9475
592.46	105.8709
592.58	105.6057
592.71	105.5219
592.83	105.1341
592.96	104.9459
593.08	105.1246
593.21	105.3866
593.33	105.5035
593.46	105.6513
593.58	105.6382
593.71	105.8101
593.83	105.5157
593.96	105.4002
594.08	105.5824
594.21	105.5623
594.33	105.5073
594.46	105.8589
594.58	105.9282
594.71	105.8933
594.83	105.5332
594.96	105.3727
595.08	105.4356
595.20	105.6031
595.33	105.1283
595.45	105.4780
595.58	105.6831
595.70	105.5950
595.83	105.3448
595.95	105.8120
596.08	105.9831
596.20	105.8299
596.33	105.8786
596.45	106.1832
596.58	106.1169
596.70	106.1024
596.83	106.0692
596.95	106.2625
597.08	106.0958
597.20	106.0858
597.32	105.9826
597.45	106.0247
597.57	105.8852
597.70	105.8600
597.82	106.0760
597.95	106.1238
598.07	106.1374
598.20	106.1655
598.32	106.1021
598.45	105.8845
598.57	105.9897
598.70	106.0538
598.82	105.7766
598.94	105.7355
599.07	105.8350
599.19	106.0535
599.32	105.7757
599.44	105.9479
599.57	106.1293
599.69	106.3665
599.82	105.8580
599.94	106.0900
600.07	106.3240
600.19	106.4650
600.31	105.9863
600.44	106.1271
600.56	106.1673
600.69	106.0052
600.81	105.9248
600.94	106.1472
601.06	106.1267
601.19	106.3862
601.31	106.2125
601.44	106.1479
601.56	106.2019
601.68	106.3663
601.81	105.8988
601.93	106.2261
602.06	106.4497
602.18	106.2836
602.31	106.1405
602.43	106.3442
602.56	106.1759
602.68	105.8578
602.80	106.1712
602.93	106.2080
603.05	106.1551
603.18	106.3152
603.30	106.5502
603.43	106.3818
603.55	106.4450
603.68	106.4903
603.80	106.3055
603.92	106.1830
604.05	106.4108
604.17	106.4141
604.30	106.3393
604.42	106.1938
604.55	106.2043
604.67	106.0460
604.79	105.9593
604.92	106.0560
605.04	106.2183
605.17	106.1370
605.29	105.8591
605.42	105.9378
605.54	105.8137
605.66	105.7522
605.79	105.6966
605.91	106.0147
606.04	105.9361
606.16	106.0375
606.29	106.2971
606.41	106.5974
606.53	106.5538
606.66	106.8632
606.78	107.0430
606.91	106.9616
607.03	106.9776
607.16	106.9087
607.28	106.6223
607.40	106.5332
607.53	106.5207
607.65	106.4800
607.78	106.3737
607.90	106.6303
608.03	106.6392
608.15	106.8205
608.27	106.8859
608.40	107.2109
608.52	106.9213
608.65	107.1237
608.77	106.7978
608.89	106.4074
609.02	106.3780
609.14	106.4175
609.27	106.2681
609.39	106.7403
609.52	107.0584
609.64	107.1296
609.76	107.1624
609.89	106.9501
610.01	106.7869
610.14	106.8769
610.26	106.6524
610.38	106.9510
610.51	107.2231
610.63	107.0620
610.76	106.9723
610.88	106.8615
611.01	106.6966
611.13	106.7573
611.25	106.8818
611.38	106.9997
611.50	107.1915
611.63	107.2866
611.75	107.1505
611.87	106.8520
612.00	106.6662
612.12	106.8942
612.25	106.8219
612.37	106.8099
612.49	106.7523
612.62	106.8582
612.74	106.6785
612.87	106.7917
612.99	106.7057
613.11	106.7809
613.24	106.7645
613.36	106.8116
613.49	106.7438
613.61	106.7356
613.73	107.0505
613.86	107.1354
613.98	107.0913
614.11	106.9879
614.23	107.0308
614.35	106.9914
614.48	106.9191
614.60	106.8726
614.72	107.0409
614.85	107.2262
614.97	107.3025
615.10	107.2751
615.22	107.3691
615.34	107.4995
615.47	107.5022
615.59	107.4660
615.72	107.8029
615.84	107.5441
615.96	107.4479
616.09	107.5933
616.21	107.4801
616.34	107.2140
616.46	107.5784
616.58	107.5788
616.71	107.3630
616.83	107.3209
616.95	107.3777
617.08	107.4237
617.20	107.5311
617.33	107.4110
617.45	107.6418
617.57	107.7286
617.70	107.5699
617.82	107.3995
617.95	107.6526
618.07	107.5323
618.19	107.3357
618.32	107.5283
618.44	107.7230
618.56	107.8881
618.69	107.7157
618.81	107.8736
618.94	107.7376
619.06	107.5466
619.18	107.4489
619.31	107.5153
619.43	107.3319
619.55	107.7076
619.68	108.0000
619.80	107.6211
619.92	107.6194
620.05	107.9913
620.17	108.0045
620.30	107.7676
620.42	108.0591
620.54	108.3400
620.67	108.2354
620.79	107.7532
620.91	107.7688
621.04	107.8393
621.16	107.9949
621.29	107.9558
621.41	108.1759
621.53	108.4416
621.66	108.2444
621.78	107.7278
621.90	107.9172
622.03	108.0407
622.15	107.9539
622.27	108.2849
622.40	108.5149
622.52	108.6162
622.64	108.5619
622.77	108.2297
622.89	108.1625
623.02	108.2756
623.14	108.0616
623.26	107.9257
623.39	108.3348
623.51	108.5414
623.63	108.4244
623.76	108.3978
623.88	108.6368
624.00	108.5578
624.13	108.4470
624.25	108.5278
624.37	108.3982
624.50	108.5992
624.62	108.7974
624.75	108.5357
624.87	108.7322
624.99	108.9878
625.12	108.3638
625.24	108.2208
625.36	108.4961
625.49	108.3062
625.61	108.1026
625.73	108.7301
625.86	108.8315
625.98	108.9573
626.10	109.0193
626.23	109.2145
626.35	109.2178
626.47	109.2390
626.60	109.2014
626.72	109.2531
626.84	109.4187
626.97	109.4677
627.09	109.1852
627.21	109.0331
627.34	109.3650
627.46	109.4155
627.58	109.1450
627.71	109.8692
627.83	109.9163
627.95	109.4385
628.08	109.4241
628.20	109.8353
628.32	109.5789
628.45	109.7270
628.57	110.0205
628.69	109.8722
628.82	109.8699
628.94	109.8145
629.06	109.7323
629.19	109.9381
629.31	110.0151
629.43	109.8536
629.56	109.6976
629.68	109.9575
629.80	109.9906
629.93	110.1471
630.05	110.2053
630.17	110.6393
630.30	110.5195
630.42	110.5686
630.54	110.7353
630.67	110.5165
630.79	110.3829
630.91	110.4141
631.04	110.3816
631.16	110.3204
631.28	110.6872
631.41	110.5154
631.53	110.4095
631.65	110.1774
631.78	110.0238
631.90	110.2259
632.02	110.2090
632.14	110.4707
632.27	110.8047
632.39	110.6919
632.51	110.5641
632.64	110.8888
632.76	110.9312
632.88	111.0036
633.01	111.2453
633.13	110.8401
633.25	110.9498
633.38	111.0382
633.50	110.9673
633.62	111.1578
633.75	111.4508
633.87	111.3208
633.99	111.4073
634.11	111.2553
634.24	111.1895
634.36	111.3087
634.48	111.0890
634.61	111.1540
634.73	111.4063
634.85	111.5267
634.98	111.6630
635.10	111.6924
635.22	111.6323
635.35	112.0216
635.47	112.0903
635.59	112.0443
635.71	112.2525
635.84	112.1340
635.96	111.9640
636.08	111.8506
636.21	111.7526
636.33	112.0348
636.45	112.3331
636.58	111.9663
636.70	112.1472
636.82	112.6372
636.94	112.4014
637.07	112.1395
637.19	112.3567
637.31	112.4255
637.44	112.0736
637.56	112.1848
637.68	112.3338
637.81	112.8242
637.93	112.6292
638.05	112.3398
638.17	112.4919
638.30	112.6761
638.42	112.3318
638.54	112.5209
638.67	112.9135
638.79	113.0727
638.91	112.9897
639.03	113.0029
639.16	112.9303
639.28	112.9753
639.40	112.5009
639.53	112.5588
639.65	112.7889
639.77	112.7900
639.89	112.7927
640.02	113.2918
640.14	113.0424
640.26	112.9418
640.39	113.0910
640.51	112.9305
640.63	112.6564
640.75	112.9471
640.88	112.9040
641.00	112.4434
641.12	112.8598
641.24	113.2836
641.37	112.9056
641.49	113.0513
641.61	113.4653
641.74	113.4478
641.86	113.0475
641.98	113.4444
642.10	113.4703
642.23	113.5464
642.35	113.3134
642.47	113.3526
642.60	113.4441
642.72	113.3624
642.84	113.2692
642.96	113.3292
643.09	113.5818
643.21	113.6108
643.33	113.6413
643.45	113.6194
643.58	113.8882
643.70	113.8004
643.82	113.7782
643.94	113.8680
644.07	113.9919
644.19	113.7604
644.31	113.8945
644.44	113.9024
644.56	113.9037
644.68	114.0296
644.80	114.2538
644.93	114.1586
645.05	114.2558
645.17	114.3405
645.29	114.3362
645.42	114.0578
645.54	114.0331
645.66	114.0529
645.78	113.9232
645.91	113.7178
646.03	114.0376
646.15	114.1913
646.27	114.1698
646.40	114.0816
646.52	114.4152
646.64	114.5328
646.76	114.3604
646.89	114.2704
647.01	114.2636
647.13	114.4646
647.25	114.3406
647.38	114.3198
647.50	114.6525
647.62	115.0679
647.74	114.6667
647.87	114.4086
647.99	114.6245
648.11	114.6666
648.23	114.3904
648.36	114.6576
648.48	115.0779
648.60	115.3487
648.72	114.8270
648.85	114.9764
648.97	115.0158
649.09	115.0021
649.21	114.8417
649.34	115.2209
649.46	115.3612
649.58	115.5237
649.70	115.2910
649.83	115.2046
649.95	115.1516
650.07	114.9941
650.19	114.6913
650.32	114.7326
650.44	114.7979
650.56	114.7996
650.68	114.8725
650.81	114.8389
650.93	114.9992
651.05	114.9206
651.17	115.0318
651.29	115.0744
651.42	115.3998
651.54	115.6301
651.66	115.6757
651.78	115.2540
651.91	115.2963
652.03	115.3421
652.15	115.1782
652.27	115.4351
652.40	115.9987
652.52	116.2710
652.64	115.8206
652.76	115.9393
652.88	115.9911
653.01	116.2042
653.13	115.8627
653.25	116.0886
653.37	115.9901
653.50	115.9982
653.62	115.4443
653.74	115.4293
653.86	115.7079
653.98	115.8143
654.11	115.7709
654.23	115.7984
654.35	115.9117
654.47	115.9739
654.60	116.2131
654.72	115.8355
654.84	116.1046
654.96	116.2157
655.08	116.1058
655.21	115.8516
655.33	116.2886
655.45	116.5082
655.57	116.4156
655.70	116.2729
655.82	116.2976
655.94	116.5723
656.06	116.2970
656.18	116.2959
656.31	116.5371
656.43	116.6558
656.55	116.4128
656.67	116.4699
656.79	116.7679
656.92	116.8536
657.04	116.5557
657.16	116.6065
657.28	116.6016
657.40	116.6730
657.53	116.5911
657.65	116.6001
657.77	116.7209
657.89	117.0076
658.01	116.7070
658.14	116.6982
658.26	117.0901
658.38	116.8729
658.50	116.3476
658.62	116.5179
658.75	116.4252
658.87	116.6092
658.99	116.8077
659.11	116.9543
659.23	117.1384
659.36	117.3304
659.48	117.1141
659.60	117.0274
659.72	117.2051
659.84	117.0310
659.97	116.4857
660.09	116.2417
660.21	116.4487
660.33	116.7579
660.45	116.6211
660.58	116.7764
660.70	117.0997
660.82	116.7104
660.94	116.1848
661.06	116.0523
661.19	116.3825
661.31	116.2349
661.43	116.1886
661.55	116.2656
661.67	116.6592
661.80	116.6058
661.92	116.6334
662.04	116.7448
662.16	117.0997
662.28	116.9496
662.40	116.8519
662.53	116.9803
662.65	116.9005
662.77	116.9239
662.89	117.1175
663.01	117.2247
663.14	116.9929
663.26	117.3273
663.38	117.0866
663.50	116.6103
663.62	116.5697
663.74	116.7043
663.87	116.3870
663.99	116.0144
664.11	116.3193
664.23	116.5484
664.35	116.4491
664.48	116.8237
664.60	117.5185
664.72	117.7162
664.84	117.4917
664.96	117.7679
665.08	117.6112
665.21	117.7616
665.33	117.5314
665.45	117.5044
665.57	117.3988
665.69	117.4369
665.81	117.2499
665.94	117.2270
666.06	117.2751
666.18	117.5625
666.30	117.3735
666.42	117.1497
666.54	117.3242
666.67	117.2234
666.79	116.9799
666.91	117.3319
667.03	117.4945
667.15	117.4808
667.27	117.7706
667.40	117.4631
667.52	117.2320
667.64	117.4121
667.76	117.2825
667.88	117.0822
668.00	117.2546
668.13	117.3713
668.25	117.2120
668.37	117.0881
668.49	117.3980
668.61	117.6574
668.73	117.6148
668.85	117.5122
668.98	117.9498
669.10	117.7065
669.22	117.2566
669.34	117.4173
669.46	117.3644
669.58	117.0274
669.71	117.2361
669.83	117.4766
669.95	117.2973
670.07	117.2778
670.19	117.5166
670.31	117.4190
670.43	117.2700
670.56	117.2256
670.68	117.4980
670.80	117.0118
670.92	116.9365
671.04	117.2295
671.16	117.3546
671.28	116.9757
671.41	117.3370
671.53	117.6126
671.65	117.1570
671.77	116.8541
671.89	117.1615
672.01	117.4545
672.13	117.1164
672.26	117.6335
672.38	117.6901
672.50	117.4500
672.62	116.9889
672.74	117.1188
672.86	116.8880
672.98	117.1143
673.11	117.0415
673.23	117.3209
673.35	117.3345
673.47	117.6567
673.59	117.4470
673.71	117.1913
673.83	117.0525
673.96	117.2219
674.08	116.8209
674.20	116.8927
674.32	117.4169
674.44	117.5425
674.56	117.1175
674.68	117.0976
674.80	117.3477
674.93	117.3334
675.05	117.1100
675.17	117.2042
675.29	117.3664
675.41	117.1783
675.53	117.1375
675.65	117.1006
675.77	117.2866
675.90	117.5119
676.02	117.2568
676.14	117.0105
676.26	117.3341
676.38	117.3128
676.50	117.2285
676.62	117.8173
676.74	118.0013
676.87	117.6224
676.99	117.4871
677.11	117.4429
677.23	117.1104
677.35	117.3916
677.47	117.7436
677.59	117.7022
677.71	117.6460
677.83	117.5499
677.96	117.4065
678.08	117.4150
678.20	117.6781
678.32	117.7624
678.44	117.6372
678.56	117.5339
678.68	117.6529
678.80	117.5943
678.93	117.4519
679.05	117.5425
679.17	117.7409
679.29	117.6369
679.41	117.6387
679.53	117.6977
679.65	117.8828
679.77	117.7601
679.89	117.4408
680.01	117.6596
680.14	117.8143
680.26	117.5975
680.38	117.4907
680.50	117.6314
680.62	117.3603
680.74	117.2790
680.86	117.5641
680.98	117.3251
681.10	117.4959
681.22	117.7311
681.35	117.9095
681.47	117.2810
681.59	117.6308
681.71	117.5924
681.83	117.1482
681.95	116.5453
682.07	116.9530
682.19	116.9029
682.31	116.4805
682.43	116.7261
682.56	117.0603
682.68	117.1634
682.80	116.9885
682.92	117.3038
683.04	117.3533
683.16	117.0852
683.28	116.9656
683.40	116.9723
683.52	116.9545
683.64	116.8831
683.76	117.1301
683.89	116.9983
684.01	117.0443
684.13	117.0394
684.25	116.8917
684.37	116.9216
684.49	116.8256
684.61	116.9335
684.73	117.0935
684.85	116.9370
684.97	117.0337
685.09	117.6587
685.21	117.4468
685.34	117.4509
685.46	117.7456
685.58	117.4731
685.70	117.3860
685.82	117.6452
685.94	117.5952
686.06	117.5579
686.18	117.7111
686.30	117.4592
686.42	117.5461
686.54	117.1708
686.66	117.1957
686.79	116.9266
686.91	116.8872
687.03	117.0069
687.15	117.4584
687.27	117.3041
687.39	117.6999
687.51	117.8446
687.63	117.5437
687.75	117.0892
687.87	117.3931
687.99	117.1675
688.11	116.8660
688.23	116.9869
688.35	117.3275
688.48	117.2484
688.60	117.2110
688.72	117.5048
688.84	117.6284
688.96	117.8019
689.08	117.3133
689.20	117.3909
689.32	117.5098
689.44	117.6167
689.56	117.4195
689.68	117.8688
689.80	117.9841
689.92	117.9258
690.04	117.7367
690.16	117.6567
690.28	117.9650
690.41	117.7952
690.53	117.3296
690.65	117.0408
690.77	117.0871
690.89	116.7723
691.01	116.9665
691.13	117.2434
691.25	117.5103
691.37	117.8270
691.49	117.5035
691.61	117.3227
691.73	117.6028
691.85	117.6445
691.97	117.0260
692.09	117.2597
692.21	117.1696
692.33	117.2143
692.45	117.1318
692.57	117.2013
692.70	117.4543
692.82	117.6613
692.94	117.4032
693.06	117.5485
693.18	117.9881
693.30	117.5656
693.42	117.5452
693.54	117.6643
693.66	117.7934
693.78	117.5319
693.90	117.9140
694.02	118.1393
694.14	118.0419
694.26	117.5277
694.38	117.4446
694.50	117.3691
694.62	117.2310
694.74	117.1348
694.86	117.3495
694.98	117.3751
695.10	117.4854
695.22	117.3792
695.34	117.5007
695.46	117.4315
695.58	117.5358
695.71	117.4089
695.83	117.1159
695.95	117.2151
696.07	117.4152
696.19	117.6018
696.31	117.3844
696.43	117.6671
696.55	117.7249
696.67	117.7291
696.79	117.6374
696.91	117.5028
697.03	117.5807
697.15	117.6289
697.27	117.2471
697.39	117.2395
697.51	117.5641
697.63	117.1342
697.75	116.9777
697.87	117.4512
697.99	117.4146
698.11	117.4193
698.23	117.8183
698.35	117.7800
698.47	117.8629
698.59	117.6149
698.71	117.7753
698.83	117.9352
698.95	118.0310
699.07	117.7273
699.19	118.0145
699.31	117.7703
699.43	117.7193
699.55	117.7043
699.67	117.8435
699.79	117.8648
699.91	117.9904
700.03	117.8966
700.15	117.8298
700.27	118.0370
700.39	117.9024
700.51	117.8773
700.63	117.7176
700.75	117.9411
700.87	117.6766
700.99	118.0518
701.11	118.1274
701.24	118.0451
701.36	117.8317
701.48	117.9751
701.60	117.4287
701.72	117.4161
701.84	117.8831
701.96	117.7615
702.08	117.4761
702.20	117.8138
702.32	117.9691
702.44	117.9601
702.56	118.1727
702.68	118.0529
702.80	117.9756
702.92	117.9280
703.04	117.8936
703.16	118.1586
703.28	118.5172
703.40	118.5468
703.52	118.3974
703.64	118.1680
703.76	117.8428
703.88	117.7527
704.00	117.5333
704.12	117.6012
704.24	117.6317
704.36	117.7833
704.48	117.6841
704.60	117.8876
704.72	117.5620
704.84	117.6097
704.96	117.7013
705.07	117.9558
705.19	117.8733
705.31	118.3356
705.43	118.2048
705.55	118.0036
705.67	118.0752
705.79	118.2635
705.91	117.9826
706.03	117.9992
706.15	118.1335
706.27	117.8463
706.39	117.8472
706.51	118.0586
706.63	118.1729
706.75	118.0285
706.87	118.2185
706.99	118.4819
707.11	118.4624
707.23	118.4179
707.35	118.2554
707.47	118.0141
707.59	117.7708
707.71	117.6621
707.83	117.8328
707.95	117.8199
708.07	118.0273
708.19	118.4677
708.31	118.6435
708.43	118.5898
708.55	118.9092
708.67	118.8464
708.79	118.4172
708.91	118.2122
709.03	118.3309
709.15	118.2195
709.27	118.2752
709.39	118.1887
709.51	118.2754
709.63	118.4363
709.75	118.3632
709.87	118.3198
709.99	118.4349
710.11	118.6272
710.23	118.0237
710.35	117.9655
710.47	117.9923
710.58	117.7738
710.70	117.4858
710.82	117.7251
710.94	117.7395
711.06	117.7826
711.18	117.5807
711.30	117.4954
711.42	117.5349
711.54	117.9283
711.66	117.8243
711.78	117.8679
711.90	118.2545
712.02	118.6126
712.14	118.1223
712.26	117.9489
712.38	118.4227
712.50	118.4534
712.62	118.3095
712.74	118.1970
712.86	118.6222
712.98	118.5736
713.10	118.1936
713.22	117.8768
713.34	118.1491
713.45	117.9974
713.57	117.7891
713.69	117.9399
713.81	118.3408
713.93	118.8359
714.05	118.6521
714.17	118.5722
714.29	118.8472
714.41	118.6304
714.53	118.2394
714.65	118.5964
714.77	118.4248
714.89	118.2132
715.01	118.2234
715.13	118.1655
715.25	118.1018
715.37	118.2701
715.49	118.2172
715.61	117.9903
715.72	118.1536
715.84	118.1427
715.96	118.1296
716.08	118.1125
716.20	118.3728
716.32	118.2718
716.44	118.1385
716.56	117.9662
716.68	117.9525
716.80	118.0594
716.92	118.1404
717.04	118.2179
717.16	118.7359
717.28	118.6424
717.40	118.4492
717.52	118.3924
717.63	118.3756
717.75	118.3405
717.87	118.6054
717.99	118.4082
718.11	118.2590
718.23	118.1121
718.35	118.2057
718.47	118.1098
718.59	118.4500
718.71	118.4517
718.83	118.8549
718.95	118.5751
719.07	118.5062
719.19	118.3521
719.30	118.3864
719.42	118.1230
719.54	118.1660
719.66	118.4425
719.78	118.4551
719.90	118.6282
720.02	118.5236
720.14	118.5809
720.26	118.3794
720.38	118.6856
720.50	118.4350
720.62	118.8410
720.74	118.7465
720.85	118.4043
720.97	118.2698
721.09	118.2815
721.21	117.9524
721.33	118.0949
721.45	118.3897
721.57	118.6923
721.69	118.5987
721.81	118.3931
721.93	118.5266
722.05	118.7950
722.16	118.4105
722.28	118.4285
722.40	118.4449
722.52	118.6141
722.64	118.4159
722.76	118.3682
722.88	118.8673
723.00	119.1222
723.12	119.2006
723.24	118.9767
723.36	118.8997
723.47	118.7076
723.59	118.6024
723.71	118.4325
723.83	118.6606
723.95	118.5949
724.07	118.1564
724.19	118.3944
724.31	118.4180
724.43	118.4950
724.55	118.0355
724.66	118.4995
724.78	118.4600
724.90	118.1604
725.02	117.9416
725.14	118.9176
725.26	118.8326
725.38	118.6509
725.50	118.6024
725.62	118.9385
725.74	119.0713
725.85	119.2664
725.97	118.1180
726.09	118.5402
726.21	118.6217
726.33	118.3354
726.45	118.1075
726.57	119.3196
726.69	118.7784
726.81	118.4366
726.92	118.1454
727.04	118.1300
727.16	118.1630
727.28	118.4587
727.40	118.0072
727.52	117.9236
727.64	117.9697
727.76	118.1715
727.88	118.1617
727.99	118.6822
728.11	118.9566
728.23	119.0805
728.35	118.8483
728.47	118.7313
728.59	118.8911
728.71	118.8872
728.83	118.6131
728.94	118.4579
729.06	118.5124
729.18	118.3202
729.30	118.0824
729.42	118.0781
729.54	118.3617
729.66	118.2419
729.78	118.1889
729.90	118.6663
730.01	118.8263
730.13	118.9510
730.25	119.0224
730.37	119.2445
730.49	119.0303
730.61	118.9752
730.73	118.9047
730.84	118.8935
730.96	119.0265
731.08	119.2240
731.20	118.8038
731.32	118.8958
731.44	119.1090
731.56	118.7407
731.68	118.4979
731.79	119.1204
731.91	118.7535
732.03	118.6641
732.15	118.8292
732.27	118.6900
732.39	118.7862
732.51	119.2808
732.62	119.0606
732.74	119.1642
732.86	119.5116
732.98	119.3272
733.10	118.6645
733.22	119.1383
733.34	118.9036
733.45	118.7060
733.57	118.5572
733.69	118.9322
733.81	118.7064
733.93	118.7662
734.05	118.7899
734.17	118.9757
734.28	119.2641
734.40	119.2925
734.52	118.9352
734.64	119.0073
734.76	119.2018
734.88	118.8487
735.00	118.4161
735.11	119.0346
735.23	119.3126
735.35	118.9007
735.47	119.0127
735.59	119.4566
735.71	119.0517
735.83	118.5784
735.94	118.6729
736.06	118.5047
736.18	118.3931
736.30	118.8823
736.42	119.0820
736.54	118.5710
736.65	118.8374
736.77	119.1039
736.89	118.2986
737.01	118.6506
737.13	119.3793
737.25	119.1454
737.36	118.8807
737.48	119.5239
737.60	119.1656
737.72	118.7426
737.84	118.9619
737.96	118.9625
738.08	119.2184
738.19	119.1921
738.31	119.6419
738.43	119.5134
738.55	119.8312
738.67	119.5982
738.79	119.5364
738.90	119.6841
739.02	119.9228
739.14	119.5420
739.26	119.2375
739.38	119.6003
739.50	119.4640
739.61	119.3307
739.73	119.3996
739.85	119.3702
739.97	119.5822
740.09	119.5264
740.20	119.4234
740.32	120.0014
740.44	120.4461
740.56	120.1997
740.68	120.2615
740.80	120.1604
740.91	119.6703
741.03	119.6664
741.15	119.2947
741.27	119.1921
741.39	119.1231
741.51	119.2695
741.62	119.2793
741.74	119.6340
741.86	119.7588
741.98	120.0743
742.10	120.0178
742.21	120.0247
742.33	119.4964
742.45	119.4540
742.57	119.2508
742.69	119.3691
742.80	119.3418
742.92	119.9406
743.04	119.6294
743.16	120.0877
743.28	120.0694
743.40	120.1512
743.51	119.9873
743.63	120.3108
743.75	119.9682
743.87	119.7878
743.99	119.5978
744.10	119.7351
744.22	119.5460
744.34	119.4043
744.46	119.7089
744.58	119.4601
744.69	119.2944
744.81	119.8027
744.93	119.7650
745.05	119.3522
745.17	119.7616
745.28	119.8699
745.40	119.7008
745.52	119.9504
745.64	120.3996
745.76	120.5920
745.87	120.2948
745.99	120.2278
746.11	120.2337
746.23	120.1918
746.35	119.3128
746.46	119.3484
746.58	119.2174
746.70	119.2565
746.82	119.3944
746.94	120.2695
747.05	120.6477
747.17	121.0433
747.29	120.5883
747.41	120.7753
747.53	120.7392
747.64	120.5180
747.76	120.0572
747.88	120.6389
748.00	120.5463
748.12	120.5782
748.23	120.6129
748.35	120.7595
748.47	120.8850
748.59	120.7876
748.70	120.6426
748.82	120.7348
748.94	120.6797
749.06	120.6701
749.18	120.3491
749.29	120.3880
749.41	120.5315
749.53	120.6014
749.65	120.7691
749.76	121.1853
749.88	120.9877
750.00	120.7127
750.12	120.8178
750.24	120.7389
750.35	120.2814
750.47	120.5679
750.59	120.4623
750.71	120.8775
750.82	120.8595
750.94	121.1216
751.06	121.0986
751.18	121.4448
751.30	120.9852
751.41	120.9439
751.53	121.1025
751.65	120.8297
751.77	120.6513
751.88	121.0798
752.00	120.6568
752.12	120.5557
752.24	120.7451
752.35	120.7395
752.47	120.2046
752.59	120.8630
752.71	120.5591
752.83	120.8796
752.94	120.9052
753.06	121.0309
753.18	120.6375
753.30	120.8817
753.41	120.4539
753.53	120.5064
753.65	120.8172
753.77	120.9546
753.88	120.8554
754.00	120.8453
754.12	121.1288
754.24	121.5522
754.35	121.3027
754.47	121.3902
754.59	121.7045
754.71	121.6938
754.82	120.9416
754.94	121.2639
755.06	121.3189
755.18	121.3591
755.29	121.0460
755.41	121.2726
755.53	121.2164
755.65	121.1883
755.76	120.5575
755.88	120.5447
756.00	120.7415
756.12	120.6343
756.23	120.1502
756.35	120.5815
756.47	121.0534
756.59	120.7718
756.70	121.0113
756.82	121.3364
756.94	121.3025
757.06	121.0781
757.17	121.3613
757.29	120.9843
757.41	121.1762
757.53	121.1569
757.64	120.9224
757.76	120.7148
757.88	120.9915
758.00	121.4340
758.11	121.5511
758.23	121.7843
758.35	121.6834
758.47	121.6697
758.58	121.2197
758.70	121.4136
758.82	121.1664
758.94	121.5283
759.05	121.6282
759.17	121.3437
759.29	121.1758
759.40	121.4353
759.52	121.0089
759.64	120.6660
759.76	121.0437
759.87	121.0914
759.99	121.4106
760.11	121.7002
760.23	121.8813
760.34	121.8955
760.46	121.8983
760.58	121.4035
760.70	121.2812
760.81	121.3271
760.93	121.4134
761.05	121.7642
761.16	122.0391
761.28	122.3745
761.40	122.0683
761.52	121.8858
761.63	121.5853
761.75	121.5910
761.87	121.3607
761.98	121.7762
762.10	121.7682
762.22	122.0873
762.34	121.8564
762.45	121.2625
762.57	121.4176
762.69	121.3976
762.81	121.4561
762.92	121.4939
763.04	121.6258
763.16	121.4097
763.27	121.4337
763.39	120.7940
763.51	120.8480
763.63	121.5492
763.74	121.5591
763.86	121.7323
763.98	121.7264
764.09	121.9530
764.21	121.6627
764.33	121.6913
764.44	121.4715
764.56	121.6795
764.68	121.6698
764.80	121.1806
764.91	121.2998
765.03	121.5082
765.15	121.7937
765.26	121.3840
765.38	121.9188
765.50	121.7673
765.62	121.6934
765.73	121.6843
765.85	121.8137
765.97	122.0458
766.08	122.2764
766.20	122.2944
766.32	121.8915
766.43	122.0191
766.55	121.8619
766.67	121.7464
766.79	121.8513
766.90	122.1975
767.02	122.4588
767.14	121.5903
767.25	121.5023
767.37	121.4533
767.49	120.9728
767.60	120.5180
767.72	121.3426
767.84	121.5846
767.95	121.4665
768.07	121.7389
768.19	122.0151
768.31	122.0700
768.42	121.8924
768.54	121.6230
768.66	121.5640
768.77	121.7387
768.89	121.6795
769.01	121.4068
769.12	121.6943
769.24	121.9377
769.36	121.8892
769.47	121.5547
769.59	121.7224
769.71	121.7838
769.82	121.9405
769.94	121.5849
770.06	122.0807
770.17	122.1802
770.29	121.9530
770.41	121.9353
770.53	122.2584
770.64	122.0319
770.76	121.9097
770.88	122.6305
770.99	122.5310
771.11	122.5370
771.23	122.3289
771.34	122.1486
771.46	121.7414
771.58	121.5932
771.69	121.3138
771.81	121.8209
771.93	121.6577
772.04	121.6289
772.16	121.5979
772.28	121.8649
772.39	121.4886
772.51	122.1699
772.63	122.3037
772.74	121.7715
772.86	121.9700
772.98	122.3129
773.09	122.1491
773.21	122.0876
773.33	123.0280
773.44	122.6230
773.56	122.2175
773.68	122.4465
773.79	122.5322
773.91	122.4462
774.03	122.3375
774.14	122.8018
774.26	122.9969
774.38	122.7897
774.49	122.3994
774.61	122.6775
774.73	122.4405
774.84	121.8564
774.96	122.1275
775.08	122.2964
775.19	122.1891
775.31	122.3095
775.43	122.6989
775.54	122.0786
775.66	122.3843
775.77	122.1290
775.89	121.8100
776.01	121.5080
776.12	122.3344
776.24	122.2816
776.36	122.3146
776.47	122.3633
776.59	122.6877
776.71	122.5822
776.82	122.4961
776.94	122.6930
777.06	123.1615
777.17	123.3173
777.29	122.9848
777.41	122.9047
777.52	122.6828
777.64	122.8433
777.75	122.7489
777.87	122.5835
777.99	122.4038
778.10	122.7694
778.22	122.5226
778.34	122.1502
778.45	122.3944
778.57	122.5447
778.69	122.0184
778.80	121.9826
778.92	122.3018
779.04	122.3285
779.15	122.1475
779.27	122.3916
779.38	122.5153
779.50	122.3620
779.62	122.7972
779.73	122.4553
779.85	122.9026
779.97	123.0995
780.08	122.8466
780.20	122.3378
780.31	122.9148
780.43	123.0003
780.55	122.4126
780.66	122.2224
780.78	122.8188
780.90	123.2385
781.01	123.2314
781.13	123.1083
781.25	123.8176
781.36	123.4958
781.48	122.6142
781.59	122.2383
781.71	122.9257
781.83	123.1828
781.94	122.5471
782.06	123.0106
782.18	123.7685
782.29	123.1676
782.41	122.5318
782.52	123.1277
782.64	123.3298
782.76	123.4357
782.87	123.2369
782.99	122.6539
783.10	122.8438
783.22	122.6830
783.34	121.8539
783.45	122.3440
783.57	122.6894
783.69	121.9500
783.80	121.7055
783.92	121.9825
784.03	121.8806
784.15	122.2913
784.27	122.7858
784.38	122.8650
784.50	122.9318
784.61	123.2123
784.73	123.4401
784.85	123.0855
784.96	123.1642
785.08	123.0916
785.19	123.2648
785.31	123.1506
785.43	123.0316
785.54	122.9577
785.66	122.5689
785.77	122.6199
785.89	122.4082
786.01	122.8309
786.12	122.6170
786.24	122.9210
786.35	122.6697
786.47	123.0738
786.59	122.9492
786.70	123.4448
786.82	123.3166
786.93	123.1941
787.05	122.9375
787.17	123.2904
787.28	122.9328
787.40	122.9289
787.51	123.2615
787.63	122.9124
787.75	122.3497
787.86	122.5668
787.98	122.7522
788.09	122.1848
788.21	122.4352
788.33	123.3345
788.44	123.2138
788.56	123.6064
788.67	123.7947
788.79	124.0195
788.91	123.8135
789.02	123.3525
789.14	122.6663
789.25	122.8007
789.37	122.4545
789.48	122.3088
789.60	122.5606
789.72	122.3778
789.83	122.7286
789.95	123.2894
790.06	122.7377
790.18	122.8628
790.30	123.1034
790.41	122.6623
790.53	122.3702
790.64	122.6054
790.76	122.7869
790.87	122.7523
790.99	122.7577
791.11	122.7817
791.22	122.6293
791.34	122.5732
791.45	122.9000
791.57	123.1455
791.68	122.5301
791.80	122.6218
791.92	122.8376
792.03	122.8135
792.15	122.6315
792.26	122.8903
792.38	122.9096
792.49	122.9143
792.61	123.1575
792.73	123.7278
792.84	125.6264
792.96	120.8276
793.07	121.2464
793.19	122.0749
793.30	122.2804
793.42	121.2620
793.54	125.2703
793.65	125.0005
793.77	124.2934
793.88	123.4985
794.00	122.9486
794.11	123.5535
794.23	123.7002
794.34	123.9695
794.46	123.1111
794.58	122.7460
794.69	123.8064
794.81	124.0055
794.92	122.4000
795.04	122.8792
795.15	123.0224
795.27	122.7541
795.39	122.4661
795.50	123.6548
795.62	124.1638
795.73	124.3610
795.85	123.5404
795.96	123.5890
796.08	123.5109
796.19	123.6068
796.31	123.5923
796.42	123.6597
796.54	123.7512
796.66	124.1618
796.77	123.2976
796.89	123.7000
797.00	124.2146
797.12	123.4566
797.23	122.6517
797.35	123.0972
797.46	122.4577
797.58	122.4696
797.69	122.8424
797.81	123.2860
797.93	123.5961
798.04	123.4756
798.16	123.7015
798.27	123.8485
798.39	123.9714
798.50	124.0824
798.62	123.7288
798.73	123.5542
798.85	123.4534
798.96	122.7871
799.08	122.4284
799.19	123.2288
799.31	123.6331
799.43	123.5932
799.54	123.4182
799.66	123.6937
799.77	124.3014
799.89	123.6751
800.00	122.9607
800.12	122.8719
800.23	123.1428
800.35	122.7236
800.46	122.3098
800.58	122.8682
800.69	123.6059
800.81	122.8253
800.92	122.8723
801.04	123.7354
801.16	123.9816
801.27	123.7875
801.39	124.2201
801.50	123.6070
801.62	123.0478
801.73	123.4465
801.85	123.4555
801.96	123.1229
802.08	124.1762
802.19	124.5161
802.31	123.4996
802.42	123.3495
802.54	124.1574
802.65	123.2525
802.77	124.0096
802.88	124.0535
803.00	124.7431
803.11	124.6616
803.23	124.8189
803.34	124.2937
803.46	124.3702
803.57	124.3651
803.69	123.7038
803.80	124.0004
803.92	123.7597
804.03	123.8923
804.15	123.3519
804.26	124.0751
804.38	123.6403
804.50	123.2998
804.61	123.4077
804.73	124.2028
804.84	123.8984
804.96	124.1917
805.07	124.3627
805.19	124.2102
805.30	123.6697
805.42	123.4918
805.53	123.5908
805.65	124.0568
805.76	124.2814
805.88	124.0919
805.99	124.4120
806.11	124.1735
806.22	123.7758
806.34	123.9019
806.45	123.5662
806.57	123.6102
806.68	123.3869
806.80	123.1789
806.91	123.5904
807.03	124.2608
807.14	124.2628
807.26	124.1617
807.37	124.8358
807.49	124.0249
807.60	123.2211
807.72	123.2080
807.83	123.7841
807.95	123.2646
808.06	123.0710
808.17	123.6932
808.29	123.1507
808.40	122.4527
808.52	122.0095
808.63	122.6850
808.75	122.2263
808.86	122.4936
808.98	122.7824
809.09	123.4869
809.21	123.1731
809.32	124.3006
809.44	124.2001
809.55	124.7571
809.67	124.1937
809.78	123.7414
809.90	123.2848
810.01	122.5746
810.13	122.5512
810.24	123.2855
810.36	123.9191
810.47	123.3015
810.59	123.4497
810.70	123.5421
810.82	123.5273
810.93	123.7262
811.05	124.3032
811.16	124.6768
811.27	123.4644
811.39	123.6165
811.50	124.4263
811.62	123.9709
811.73	123.9270
811.85	124.5260
811.96	124.2175
812.08	123.5418
812.19	123.8275
812.31	124.6037
812.42	124.7057
812.54	123.9683
812.65	123.6095
812.77	123.5345
812.88	123.1132
813.00	123.9509
813.11	124.8144
813.22	125.3691
813.34	124.5813
813.45	123.8332
813.57	123.7499
813.68	124.4991
813.80	124.7838
813.91	124.5195
814.03	125.7697
814.14	125.0566
814.26	123.8789
814.37	123.6011
814.49	124.5813
814.60	123.6391
814.71	124.0099
814.83	124.0019
814.94	123.0378
815.06	123.6232
815.17	124.8260
815.29	123.2905
815.40	123.7427
815.52	124.9526
815.63	124.1672
815.75	124.3094
815.86	125.5758
815.97	124.9714
816.09	124.0249
816.20	125.8250
816.32	124.8399
816.43	125.2696
816.55	124.1501
816.66	124.9649
816.78	123.7244
816.89	124.5997
817.00	124.7961
817.12	125.2676
817.23	124.6965
817.35	125.6251
817.46	123.4081
817.58	123.4149
817.69	124.2900
817.81	124.0989
817.92	122.5769
818.03	124.7210
818.15	124.4674
818.26	124.3185
818.38	128.2687
818.49	134.0288
818.61	114.5279
818.72	115.8990
818.83	122.4908
818.95	120.3367
819.06	114.0465
819.18	134.6894
819.29	132.8391
819.41	125.8755
819.52	124.4809
819.64	126.5350
819.75	126.4397
819.86	124.9124
819.98	125.4118
820.09	126.3002
820.21	123.7281
820.32	121.5746
820.44	124.6683
820.55	124.6392
820.66	124.1634
820.78	125.2080
820.89	127.5393
821.01	125.9157
821.12	127.8053
821.23	124.7449
821.35	124.4266
821.46	125.9467
821.58	126.9761
821.69	123.4217
821.81	124.8481
821.92	123.7180
822.03	123.9132
822.15	123.5772
822.26	123.7835
822.38	124.4860
822.49	125.9023
822.61	123.5954
822.72	123.6803
822.83	127.7550
822.95	127.3739
823.06	125.8464
823.18	126.0564
823.29	127.0951
823.40	129.2218
823.52	125.1670
823.63	127.8102
823.75	132.7453
823.86	128.2999
823.97	126.3305
824.09	131.3791
824.20	132.1630
824.32	127.6591
824.43	126.2821
824.55	126.5712
824.66	127.8297
824.77	123.3275
824.89	124.0383
825.00	126.9834
825.12	126.0451
825.23	127.7035
825.34	126.4383
825.46	125.8738
825.57	132.1935
825.69	130.4356
825.80	130.2750
825.91	131.6007
826.03	134.5581
826.14	127.7472
826.26	127.5396
826.37	124.6422
826.48	132.9817
826.60	128.8670
826.71	129.8627
826.83	121.4813
826.94	117.9130
827.05	116.0491
827.17	118.1929
827.28	121.2100
827.39	126.4936
827.51	130.3939
827.62	128.8723
827.74	136.8068
827.85	137.8430
827.96	124.6730
828.08	138.3979
828.19	173.3853
828.31	154.6025
828.42	140.0198
828.53	151.0233
828.65	56.5166
828.76	0.0000
828.87	0.0000
828.99	0.0000
