Wavelength (nm)	Reflectance (%)
377.35	0.0000
377.48	0.0000
377.62	0.0000
377.75	44.3404
377.88	0.0000
378.02	129.5238
378.15	200.0000
378.28	200.0000
378.41	67.1111
378.55	200.0000
378.68	0.0000
378.81	200.0000
378.95	200.0000
379.08	200.0000
379.21	200.0000
379.35	20.3871
379.48	155.0233
379.61	183.1172
379.74	122.1502
379.88	38.4268
380.01	70.7732
380.14	98.4146
380.28	49.6184
380.41	43.9158
380.54	128.0160
380.68	119.0780
380.81	69.7558
380.94	55.3023
381.07	84.4487
381.21	92.2233
381.34	39.1370
381.47	64.9125
381.61	126.5009
381.74	108.7899
381.87	32.9877
382.00	99.7398
382.14	125.4935
382.27	60.6556
382.40	36.4857
382.54	85.9392
382.67	94.5348
382.80	59.7338
382.93	86.7509
383.07	98.0135
383.20	93.2850
383.33	120.3785
383.47	81.5652
383.60	80.3333
383.73	108.7531
383.86	107.3632
384.00	63.0489
384.13	95.2654
384.26	104.4410
384.40	73.2603
384.53	57.9090
384.66	75.2819
384.79	94.1622
384.93	82.8254
385.06	62.3392
385.19	65.7035
385.33	71.5065
385.46	47.7497
385.59	60.7035
385.72	98.3655
385.86	90.2787
385.99	85.2649
386.12	88.0510
386.25	59.7915
386.39	67.2872
386.52	84.0053
386.65	79.4095
386.79	59.8851
386.92	96.1267
387.05	104.4743
387.18	77.7704
387.32	68.8093
387.45	109.4370
387.58	99.4841
387.71	81.5337
387.85	87.9609
387.98	86.3252
388.11	86.2264
388.25	74.8978
388.38	63.7268
388.51	75.9109
388.64	100.1832
388.78	102.6845
388.91	75.8930
389.04	98.7752
389.17	89.5842
389.31	54.2819
389.44	44.7007
389.57	78.2146
389.70	75.7308
389.84	84.7839
389.97	89.8874
390.10	95.8533
390.24	99.0353
390.37	75.8071
390.50	71.1523
390.63	76.6742
390.77	69.4369
390.90	71.7094
391.03	90.2374
391.16	83.3618
391.30	85.6300
391.43	99.7804
391.56	77.1855
391.69	79.6158
391.83	96.9528
391.96	74.7567
392.09	64.4984
392.22	93.1950
392.36	96.8889
392.49	66.8169
392.62	69.5983
392.75	77.8108
392.89	71.9608
393.02	75.2335
393.15	63.2074
393.28	84.4820
393.42	74.3552
393.55	73.5621
393.68	61.7137
393.81	85.8393
393.95	86.0188
394.08	83.5330
394.21	75.9439
394.34	75.7287
394.48	78.9927
394.61	70.5282
394.74	77.7856
394.87	77.6334
395.01	98.0699
395.14	83.4292
395.27	72.1679
395.40	78.6625
395.54	83.4146
395.67	59.7036
395.80	72.0187
395.93	86.8773
396.07	86.6702
396.20	82.6422
396.33	85.8427
396.46	88.9038
396.59	96.6678
396.73	78.7578
396.86	77.7919
396.99	94.6226
397.12	111.9111
397.26	62.7321
397.39	66.9483
397.52	85.8127
397.65	79.6532
397.79	50.1647
397.92	94.0824
398.05	106.3691
398.18	83.2914
398.32	72.7114
398.45	80.2992
398.58	85.0705
398.71	79.8305
398.84	78.8116
398.98	78.7510
399.11	84.8459
399.24	82.2186
399.37	81.9757
399.51	87.1535
399.64	88.5854
399.77	85.2765
399.90	89.1062
400.03	78.7730
400.17	72.6889
400.30	76.7267
400.43	76.0816
400.56	69.5287
400.70	85.8807
400.83	92.4271
400.96	90.1367
401.09	83.7037
401.23	85.0401
401.36	77.4921
401.49	77.1305
401.62	80.3800
401.75	88.6836
401.89	84.3409
402.02	83.8113
402.15	84.6835
402.28	87.2181
402.41	91.6453
402.55	81.6755
402.68	78.6136
402.81	85.8573
402.94	90.0739
403.08	79.3270
403.21	84.2012
403.34	95.3364
403.47	86.2609
403.60	73.8276
403.74	84.1097
403.87	89.6223
404.00	88.6795
404.13	95.9493
404.26	96.5108
404.40	92.0734
404.53	97.9361
404.66	85.9675
404.79	80.0308
404.93	92.8212
405.06	90.3810
405.19	81.4160
405.32	84.3251
405.45	92.5537
405.59	93.8059
405.72	70.5483
405.85	80.4309
405.98	92.5423
406.11	86.6131
406.25	71.0342
406.38	94.3233
406.51	93.4604
406.64	89.5392
406.77	85.8490
406.91	94.9091
407.04	96.7491
407.17	93.9002
407.30	81.8618
407.43	80.6863
407.57	85.2819
407.70	86.6964
407.83	89.1598
407.96	87.8005
408.09	98.4729
408.23	101.3805
408.36	85.2009
408.49	81.5200
408.62	99.6255
408.75	93.8588
408.89	87.3888
409.02	94.5700
409.15	94.2497
409.28	96.9202
409.41	84.5767
409.55	83.2603
409.68	96.3247
409.81	94.0149
409.94	83.7698
410.07	100.1136
410.20	101.8197
410.34	95.7224
410.47	93.6824
410.60	98.1916
410.73	92.4845
410.86	93.5899
411.00	93.9268
411.13	96.8828
411.26	90.2974
411.39	92.4291
411.52	90.4245
411.66	93.2782
411.79	92.2575
411.92	98.0309
412.05	98.9942
412.18	96.0059
412.31	91.6645
412.45	102.5669
412.58	102.8267
412.71	94.5637
412.84	101.7670
412.97	107.5237
413.11	98.6035
413.24	87.5356
413.37	98.3761
413.50	100.0907
413.63	93.8713
413.76	93.4988
413.90	105.5754
414.03	102.7306
414.16	98.8350
414.29	91.5416
414.42	97.1273
414.56	95.0981
414.69	95.2911
414.82	92.6607
414.95	101.4526
415.08	94.0975
415.21	101.8253
415.35	98.2872
415.48	94.9777
415.61	105.8575
415.74	110.7664
415.87	90.3637
416.00	95.8212
416.14	107.1731
416.27	98.8478
416.40	94.8564
416.53	106.8727
416.66	110.0694
416.79	100.6812
416.93	99.3997
417.06	103.1817
417.19	105.4598
417.32	106.3732
417.45	102.2562
417.58	102.3212
417.72	100.8428
417.85	93.7839
417.98	92.2230
418.11	100.6056
418.24	101.0389
418.37	102.9992
418.51	101.5780
418.64	97.8668
418.77	103.0442
418.90	103.2738
419.03	96.3302
419.16	107.4818
419.29	115.3640
419.43	98.0375
419.56	96.4644
419.69	107.4840
419.82	105.2854
419.95	99.2877
420.08	104.0190
420.22	104.3277
420.35	100.8910
420.48	105.8778
420.61	100.5140
420.74	110.5492
420.87	115.3915
421.00	111.2030
421.14	99.8781
421.27	104.8751
421.40	103.8930
421.53	103.2187
421.66	107.1522
421.79	111.9318
421.93	116.1311
422.06	111.2931
422.19	107.5567
422.32	107.3366
422.45	110.8747
422.58	103.2498
422.71	100.9264
422.85	105.8319
422.98	107.8828
423.11	105.9942
423.24	108.8709
423.37	111.6249
423.50	109.7798
423.63	109.0993
423.77	107.0141
423.90	103.6373
424.03	105.1392
424.16	108.0976
424.29	107.8459
424.42	110.0955
424.55	110.9538
424.69	110.4310
424.82	111.0639
424.95	106.5101
425.08	105.8687
425.21	108.8495
425.34	108.1061
425.47	107.0690
425.60	110.6431
425.74	109.9492
425.87	107.7275
426.00	110.2015
426.13	109.2926
426.26	109.5786
426.39	105.6997
426.52	108.5295
426.66	112.6175
426.79	103.7144
426.92	99.5849
427.05	105.9623
427.18	106.7669
427.31	103.2404
427.44	108.4470
427.57	114.5165
427.71	112.1107
427.84	105.6159
427.97	102.7376
428.10	108.1626
428.23	113.1460
428.36	105.8305
428.49	104.5556
428.62	107.9479
428.76	109.8265
428.89	102.2206
429.02	103.0717
429.15	109.9368
429.28	109.3864
429.41	105.2662
429.54	102.7712
429.67	109.8217
429.81	112.1108
429.94	107.3535
430.07	100.7580
430.20	105.1834
430.33	105.6420
430.46	102.8106
430.59	108.9797
430.72	113.4026
430.85	114.4014
430.99	110.9818
431.12	107.4001
431.25	108.0593
431.38	112.0826
431.51	105.2496
431.64	105.2844
431.77	110.3573
431.90	110.9748
432.03	107.4133
432.17	109.8945
432.30	113.5940
432.43	111.6675
432.56	108.4706
432.69	106.0499
432.82	108.5055
432.95	107.8378
433.08	108.7722
433.21	108.8698
433.35	113.5658
433.48	112.3846
433.61	113.2353
433.74	109.9078
433.87	111.9319
434.00	110.0970
434.13	109.1973
434.26	106.2264
434.39	110.1073
434.53	108.8504
434.66	110.5105
434.79	106.4247
434.92	110.4926
435.05	110.3599
435.18	105.0819
435.31	103.2135
435.44	109.3581
435.57	111.2544
435.70	108.9305
435.84	107.2039
435.97	109.8259
436.10	110.8443
436.23	106.2695
436.36	105.8880
436.49	112.1191
436.62	109.1011
436.75	107.0773
436.88	107.5944
437.01	111.6823
437.14	111.4899
437.28	107.8531
437.41	104.8832
437.54	107.8043
437.67	109.7592
437.80	101.8202
437.93	103.1244
438.06	110.1275
438.19	109.8702
438.32	104.6770
438.45	108.4295
438.58	110.4147
438.72	108.7987
438.85	106.3776
438.98	105.8802
439.11	108.7263
439.24	109.5082
439.37	105.6485
439.50	107.5967
439.63	110.6107
439.76	111.9691
439.89	111.4943
440.02	110.1291
440.15	109.7689
440.29	111.2494
440.42	108.5753
440.55	105.1147
440.68	111.2366
440.81	112.6301
440.94	106.1121
441.07	107.2919
441.20	112.9115
441.33	110.0074
441.46	107.4013
441.59	111.5244
441.72	112.4010
441.85	109.9811
441.99	106.6715
442.12	105.6309
442.25	105.5460
442.38	107.7707
442.51	107.8374
442.64	110.0873
442.77	112.2556
442.90	113.1616
443.03	110.7634
443.16	107.9189
443.29	109.6849
443.42	107.8233
443.55	107.2363
443.68	107.3134
443.82	111.1663
443.95	108.3315
444.08	109.1411
444.21	107.7984
444.34	107.5051
444.47	106.5156
444.60	108.8706
444.73	106.5768
444.86	107.2094
444.99	108.3476
445.12	110.3159
445.25	108.3779
445.38	109.6058
445.51	111.4056
445.64	114.1568
445.78	107.1613
445.91	105.9219
446.04	110.5301
446.17	107.8134
446.30	103.6938
446.43	110.9823
446.56	114.2469
446.69	108.7083
446.82	107.3787
446.95	109.1389
447.08	109.6677
447.21	107.5798
447.34	108.6465
447.47	111.3857
447.60	108.9486
447.73	107.7135
447.86	109.3823
447.99	109.4970
448.13	110.6764
448.26	111.0772
448.39	109.0279
448.52	109.8666
448.65	110.5063
448.78	107.4329
448.91	109.9207
449.04	109.9150
449.17	108.4354
449.30	109.4720
449.43	108.2833
449.56	106.6927
449.69	110.6895
449.82	109.4011
449.95	106.9392
450.08	109.9187
450.21	111.0207
450.34	107.6575
450.47	110.0880
450.60	113.0408
450.73	114.3160
450.87	112.8040
451.00	107.5793
451.13	108.0436
451.26	106.0218
451.39	104.2095
451.52	104.4383
451.65	110.3555
451.78	111.4328
451.91	109.2946
452.04	107.1895
452.17	109.7982
452.30	110.3187
452.43	106.1259
452.56	110.7696
452.69	110.3143
452.82	108.1665
452.95	109.2769
453.08	108.4846
453.21	107.6239
453.34	109.8665
453.47	106.8492
453.60	104.7069
453.73	107.4516
453.86	105.8018
453.99	106.6488
454.12	108.9908
454.25	110.3734
454.38	109.5177
454.52	109.9727
454.65	110.0926
454.78	109.5164
454.91	108.5266
455.04	109.8535
455.17	106.8697
455.30	106.9097
455.43	109.5422
455.56	108.1943
455.69	106.1076
455.82	109.9377
455.95	109.3347
456.08	108.2650
456.21	109.8420
456.34	110.1238
456.47	109.6034
456.60	109.8386
456.73	107.7891
456.86	107.6935
456.99	109.0273
457.12	106.9228
457.25	105.6942
457.38	106.5161
457.51	106.2646
457.64	105.4725
457.77	106.7633
457.90	107.0511
458.03	107.0333
458.16	105.8274
458.29	106.2342
458.42	106.5936
458.55	107.2902
458.68	105.5551
458.81	102.6895
458.94	104.5613
459.07	106.1943
459.20	105.2838
459.33	104.3975
459.46	107.4767
459.59	107.5647
459.72	104.2702
459.85	103.8261
459.98	107.0461
460.11	108.9855
460.24	105.3005
460.37	106.2780
460.50	107.9772
460.63	107.7901
460.76	104.9121
460.89	106.1635
461.02	108.0228
461.15	107.9990
461.28	105.6029
461.41	108.3149
461.54	109.2871
461.67	107.3387
461.80	107.2591
461.93	108.0888
462.06	107.2364
462.19	107.9107
462.32	106.8073
462.45	106.4982
462.58	107.1403
462.71	107.6620
462.84	105.6835
462.97	106.1391
463.10	105.0264
463.23	105.1180
463.36	105.5334
463.49	105.7191
463.62	106.5153
463.75	107.4208
463.88	109.4784
464.01	105.5247
464.14	106.7680
464.27	108.0937
464.40	107.2287
464.53	105.4584
464.66	107.1682
464.79	107.3267
464.92	106.1225
465.05	106.2579
465.18	106.2694
465.31	107.7726
465.44	107.5753
465.57	104.8528
465.70	105.7473
465.83	107.4576
465.96	105.6026
466.09	104.3165
466.22	107.6636
466.35	107.7576
466.48	106.3167
466.61	106.6636
466.74	106.4268
466.87	105.4991
467.00	104.2022
467.13	105.1702
467.26	106.9195
467.39	107.8576
467.52	106.3247
467.65	107.3090
467.78	106.0398
467.91	104.5872
468.04	104.3696
468.17	106.8235
468.30	107.0184
468.43	106.7347
468.56	106.2838
468.69	107.7469
468.82	107.3450
468.95	107.3793
469.08	108.5313
469.21	107.9705
469.34	105.8461
469.47	107.0561
469.60	107.1859
469.73	106.1574
469.86	109.1274
469.99	110.2802
470.11	107.7666
470.24	106.9898
470.37	107.9837
470.50	107.2108
470.63	106.1981
470.76	105.9128
470.89	107.7917
471.02	108.2853
471.15	105.9814
471.28	105.4914
471.41	107.5860
471.54	107.6446
471.67	105.4064
471.80	106.3628
471.93	108.0292
472.06	108.6450
472.19	105.4644
472.32	105.9324
472.45	106.8670
472.58	106.4867
472.71	105.7482
472.84	108.1624
472.97	107.9181
473.10	108.5917
473.23	107.4204
473.36	106.5676
473.49	105.8291
473.62	106.0164
473.74	105.2106
473.87	106.7523
474.00	106.7310
474.13	106.1678
474.26	106.9181
474.39	106.8372
474.52	105.5312
474.65	106.8910
474.78	107.8730
474.91	106.0217
475.04	105.7678
475.17	106.7465
475.30	105.3164
475.43	105.1215
475.56	106.8426
475.69	107.8432
475.82	106.7782
475.95	107.6253
476.08	107.6100
476.21	107.2936
476.34	105.5432
476.46	106.6739
476.59	106.4535
476.72	106.7486
476.85	105.6925
476.98	105.9003
477.11	106.3805
477.24	105.8261
477.37	104.7881
477.50	106.0470
477.63	106.7328
477.76	106.0869
477.89	105.8180
478.02	105.9819
478.15	106.0643
478.28	106.5563
478.41	105.4596
478.54	106.2415
478.66	106.5677
478.79	106.4370
478.92	105.6357
479.05	106.4345
479.18	105.5943
479.31	105.7255
479.44	105.4171
479.57	105.3740
479.70	106.1428
479.83	107.0801
479.96	105.4528
480.09	105.1409
480.22	105.5698
480.35	104.9716
480.48	104.7403
480.60	105.4776
480.73	106.1322
480.86	106.3133
480.99	106.0806
481.12	105.1130
481.25	106.3606
481.38	106.3667
481.51	105.4974
481.64	105.7074
481.77	106.8945
481.90	106.6440
482.03	105.8279
482.16	106.5167
482.29	106.6052
482.41	106.8623
482.54	106.8734
482.67	107.3822
482.80	107.8528
482.93	107.2518
483.06	106.4835
483.19	106.5832
483.32	106.9020
483.45	106.0618
483.58	105.8913
483.71	105.7703
483.84	105.3839
483.97	105.1249
484.09	105.2156
484.22	105.9681
484.35	106.0570
484.48	105.7531
484.61	105.7026
484.74	105.9338
484.87	105.5401
485.00	105.9314
485.13	106.0488
485.26	106.5909
485.39	105.7825
485.52	105.5694
485.64	104.9391
485.77	105.4413
485.90	105.0263
486.03	105.9308
486.16	105.8792
486.29	105.9018
486.42	105.6416
486.55	105.0665
486.68	104.5273
486.81	105.2433
486.94	105.3083
487.06	104.8421
487.19	105.3871
487.32	105.8523
487.45	105.3912
487.58	105.9933
487.71	106.2324
487.84	105.8512
487.97	105.5969
488.10	106.0744
488.23	105.3154
488.35	105.6750
488.48	106.1671
488.61	106.3645
488.74	106.0575
488.87	105.7327
489.00	105.6901
489.13	105.8982
489.26	105.7746
489.39	105.6181
489.52	106.2493
489.64	105.8561
489.77	105.3705
489.90	105.0429
490.03	105.2595
490.16	105.5702
490.29	105.3071
490.42	105.8463
490.55	106.0888
490.68	106.5717
490.81	105.6630
490.93	105.9666
491.06	105.6580
491.19	105.2578
491.32	104.8798
491.45	105.3273
491.58	105.5663
491.71	105.8243
491.84	105.5386
491.97	105.2395
492.09	105.6546
492.22	105.2745
492.35	105.0888
492.48	105.9791
492.61	105.8400
492.74	105.5801
492.87	105.9777
493.00	105.4865
493.12	105.1728
493.25	105.6081
493.38	106.0090
493.51	105.5844
493.64	105.8293
493.77	105.8873
493.90	105.3226
494.03	104.7517
494.16	105.1926
494.28	105.6600
494.41	105.0416
494.54	105.2212
494.67	106.0152
494.80	105.8251
494.93	105.5709
495.06	106.4437
495.19	106.9988
495.31	106.7465
495.44	106.5855
495.57	106.7355
495.70	106.8586
495.83	106.6622
495.96	105.7818
496.09	105.5421
496.22	105.9324
496.34	105.7151
496.47	105.1392
496.60	105.3432
496.73	105.9973
496.86	105.1645
496.99	105.1582
497.12	105.4473
497.24	105.5184
497.37	105.3373
497.50	105.7459
497.63	105.0930
497.76	104.7583
497.89	105.6741
498.02	105.7093
498.15	105.3915
498.27	105.6384
498.40	106.0320
498.53	105.3814
498.66	105.7631
498.79	105.8122
498.92	105.8764
499.05	106.0662
499.17	105.4743
499.30	105.0628
499.43	105.6764
499.56	105.7189
499.69	105.5380
499.82	106.3042
499.95	106.4857
500.07	106.0507
500.20	105.3298
500.33	105.4125
500.46	105.5646
500.59	105.2973
500.72	104.9770
500.85	105.5110
500.97	105.9274
501.10	105.7419
501.23	105.1496
501.36	105.1347
501.49	105.5152
501.62	104.5090
501.75	104.6336
501.87	104.9924
502.00	104.9101
502.13	104.8477
502.26	105.2512
502.39	105.2754
502.52	105.4466
502.64	105.3410
502.77	105.2711
502.90	105.6748
503.03	105.4817
503.16	104.9610
503.29	105.2857
503.42	105.5203
503.54	105.4649
503.67	104.9084
503.80	106.0247
503.93	106.2415
504.06	105.6089
504.19	105.4406
504.31	105.6560
504.44	104.9578
504.57	105.0911
504.70	105.2584
504.83	105.2090
504.96	105.4261
505.08	104.9770
505.21	104.6803
505.34	105.0835
505.47	105.2554
505.60	105.4173
505.73	105.3747
505.85	105.6277
505.98	105.7990
506.11	105.6142
506.24	105.3288
506.37	105.4665
506.50	105.3606
506.62	105.0022
506.75	104.6020
506.88	104.9070
507.01	105.1512
507.14	105.0007
507.27	104.9268
507.39	105.3850
507.52	104.7728
507.65	105.1236
507.78	104.8848
507.91	104.7689
508.04	104.5738
508.16	104.8927
508.29	105.0762
508.42	105.4370
508.55	104.9255
508.68	105.0080
508.81	105.1008
508.93	104.5702
509.06	104.2977
509.19	105.0524
509.32	104.7635
509.45	104.8254
509.57	104.9427
509.70	105.1319
509.83	104.9517
509.96	105.2734
510.09	105.2346
510.22	105.4536
510.34	105.0127
510.47	105.0917
510.60	104.9647
510.73	104.7815
510.86	104.6156
510.98	104.7120
511.11	104.5149
511.24	104.6631
511.37	104.7684
511.50	104.6869
511.63	104.9572
511.75	104.9755
511.88	104.8286
512.01	104.7553
512.14	104.7987
512.27	104.7509
512.39	104.7325
512.52	104.8152
512.65	104.8969
512.78	104.7275
512.91	104.5581
513.03	104.3916
513.16	104.3703
513.29	104.1217
513.42	103.8981
513.55	104.2834
513.67	104.7097
513.80	104.4632
513.93	104.3608
514.06	104.7644
514.19	104.3634
514.31	104.3884
514.44	104.3821
514.57	104.2028
514.70	104.3562
514.83	104.6414
514.95	104.3445
515.08	104.4419
515.21	104.7854
515.34	104.7303
515.47	104.4873
515.59	104.4991
515.72	104.1362
515.85	104.2883
515.98	103.9776
516.11	103.8439
516.23	104.0318
516.36	104.5599
516.49	104.1984
516.62	104.0039
516.75	104.6112
516.87	104.4608
517.00	103.7781
517.13	103.9568
517.26	104.7031
517.39	104.1497
517.51	103.5905
517.64	104.2627
517.77	104.0745
517.90	103.6106
518.02	103.9202
518.15	104.1303
518.28	103.7105
518.41	103.6073
518.54	103.5107
518.66	103.4284
518.79	103.6279
518.92	103.6575
519.05	103.5817
519.18	103.6623
519.30	103.5028
519.43	103.5256
519.56	103.3474
519.69	103.7219
519.81	103.8554
519.94	103.7159
520.07	103.5938
520.20	103.7800
520.33	103.7577
520.45	103.5389
520.58	103.4442
520.71	103.4879
520.84	103.6806
520.96	103.6917
521.09	103.4440
521.22	103.3924
521.35	103.5902
521.48	103.5260
521.60	103.2000
521.73	102.7763
521.86	103.0438
521.99	103.0310
522.11	102.7234
522.24	103.0091
522.37	103.1864
522.50	103.5192
522.62	103.3461
522.75	103.6524
522.88	103.5012
523.01	103.7756
523.14	103.1387
523.26	103.4741
523.39	103.0595
523.52	103.1124
523.65	103.2541
523.77	103.3817
523.90	102.9071
524.03	103.1582
524.16	103.2060
524.28	103.1330
524.41	103.5476
524.54	103.7941
524.67	103.6025
524.79	103.2540
524.92	103.5712
525.05	103.1638
525.18	103.3713
525.31	102.9957
525.43	103.5560
525.56	103.8552
525.69	103.8010
525.82	103.3496
525.94	104.0553
526.07	103.9873
526.20	103.2877
526.33	103.4040
526.45	103.6052
526.58	103.5773
526.71	103.1094
526.84	103.3206
526.96	103.1290
527.09	103.0908
527.22	103.2540
527.35	103.1723
527.47	103.3508
527.60	103.4186
527.73	103.2225
527.86	102.9712
527.98	103.3848
528.11	102.8513
528.24	103.1091
528.37	103.1271
528.49	102.7450
528.62	103.0666
528.75	103.4486
528.88	103.2529
529.00	103.5762
529.13	104.0011
529.26	103.1949
529.39	102.9263
529.51	103.3199
529.64	103.2566
529.77	103.0439
529.90	103.4366
530.02	103.8445
530.15	103.6038
530.28	103.5074
530.40	103.5892
530.53	103.7882
530.66	103.3548
530.79	103.3841
530.91	103.3270
531.04	103.4283
531.17	103.1822
531.30	103.3908
531.42	102.7910
531.55	103.0260
531.68	103.1529
531.81	103.0891
531.93	103.2456
532.06	103.6068
532.19	103.2247
532.31	102.8890
532.44	103.1784
532.57	102.9918
532.70	102.8985
532.82	102.8322
532.95	102.7577
533.08	102.6876
533.21	102.8894
533.33	103.1146
533.46	102.8816
533.59	103.3286
533.71	103.4777
533.84	103.4177
533.97	103.3522
534.10	103.7114
534.22	103.5684
534.35	103.0684
534.48	103.0189
534.61	103.1556
534.73	103.0540
534.86	102.7453
534.99	103.0248
535.11	103.0587
535.24	103.1206
535.37	103.4913
535.50	103.6308
535.62	103.5150
535.75	103.5435
535.88	103.3428
536.00	102.9932
536.13	103.0295
536.26	103.2266
536.39	102.8912
536.51	103.0144
536.64	103.3055
536.77	103.2617
536.89	102.9856
537.02	103.1926
537.15	102.9783
537.28	102.9283
537.40	102.6979
537.53	102.7329
537.66	102.8830
537.78	103.2095
537.91	103.2802
538.04	104.0299
538.17	103.9826
538.29	103.5365
538.42	103.3543
538.55	103.4375
538.67	103.0227
538.80	103.4989
538.93	103.6601
539.05	103.5947
539.18	103.3634
539.31	103.6391
539.44	103.3179
539.56	103.5053
539.69	103.8273
539.82	104.0090
539.94	103.3716
540.07	103.3894
540.20	103.3908
540.32	103.0653
540.45	102.6536
540.58	103.2747
540.71	103.5546
540.83	103.6253
540.96	103.3931
541.09	103.4322
541.21	103.4519
541.34	103.3175
541.47	103.1038
541.59	103.0368
541.72	103.3267
541.85	103.5012
541.98	103.4940
542.10	103.2373
542.23	103.6652
542.36	103.7346
542.48	103.5361
542.61	103.3662
542.74	103.8187
542.86	103.9580
542.99	103.7922
543.12	103.7416
543.24	103.6824
543.37	103.6034
543.50	103.3657
543.62	103.5884
543.75	103.6118
543.88	103.6200
544.01	103.4740
544.13	103.5469
544.26	103.3416
544.39	103.0593
544.51	102.9751
544.64	103.1670
544.77	102.9589
544.89	103.0903
545.02	102.9868
545.15	102.8095
545.27	102.8048
545.40	102.8872
545.53	102.9577
545.65	103.4395
545.78	103.8070
545.91	103.6434
546.03	103.8862
546.16	103.8238
546.29	103.5735
546.41	103.7875
546.54	103.7589
546.67	103.4460
546.79	103.6456
546.92	103.5838
547.05	103.4024
547.17	103.5253
547.30	103.8927
547.43	103.6078
547.56	103.7455
547.68	103.7052
547.81	103.6831
547.94	103.5692
548.06	103.3798
548.19	103.4543
548.32	103.6537
548.44	103.5700
548.57	103.2486
548.70	103.4067
548.82	103.3830
548.95	103.4375
549.08	103.2088
549.20	103.4430
549.33	103.5433
549.45	103.7060
549.58	103.3384
549.71	103.8977
549.83	103.8156
549.96	103.6538
550.09	103.2368
550.21	103.4852
550.34	103.2003
550.47	103.5497
550.59	103.5297
550.72	103.2419
550.85	103.2260
550.97	103.4383
551.10	102.9657
551.23	103.0170
551.35	103.6016
551.48	103.7335
551.61	103.3738
551.73	103.4756
551.86	103.5831
551.99	103.1805
552.11	102.8402
552.24	103.1385
552.37	103.2212
552.49	103.1090
552.62	103.3046
552.75	103.4502
552.87	103.2938
553.00	103.3271
553.12	103.2365
553.25	103.0394
553.38	102.9286
553.50	103.1051
553.63	102.9136
553.76	102.9975
553.88	103.2706
554.01	103.2185
554.14	102.8788
554.26	103.2022
554.39	103.2502
554.52	103.2392
554.64	103.2557
554.77	103.3609
554.89	103.1199
555.02	103.0568
555.15	102.9229
555.27	102.6543
555.40	102.7945
555.53	102.9891
555.65	102.7862
555.78	102.6355
555.91	103.0999
556.03	103.1699
556.16	102.8476
556.29	102.7085
556.41	102.9856
556.54	102.8621
556.66	102.2553
556.79	102.3000
556.92	102.8472
557.04	102.6651
557.17	102.5232
557.30	102.9437
557.42	102.8502
557.55	102.5639
557.67	102.4444
557.80	102.3527
557.93	102.5192
558.05	102.5774
558.18	102.4468
558.31	102.3828
558.43	102.5083
558.56	102.4346
558.68	102.3932
558.81	102.1883
558.94	102.5040
559.06	102.5329
559.19	102.4366
559.32	102.4263
559.44	102.6997
559.57	102.5139
559.69	102.2542
559.82	102.1565
559.95	102.3811
560.07	102.3549
560.20	102.1667
560.33	102.4602
560.45	102.1867
560.58	102.1563
560.70	102.2090
560.83	102.3240
560.96	102.0152
561.08	102.4538
561.21	102.5967
561.33	102.2653
561.46	102.4002
561.59	102.6513
561.71	102.5782
561.84	102.2769
561.97	102.8044
562.09	102.8303
562.22	102.6241
562.34	102.5810
562.47	102.6395
562.60	102.4381
562.72	102.2003
562.85	102.3093
562.97	102.2794
563.10	102.2564
563.23	102.0808
563.35	102.0943
563.48	101.9436
563.60	102.0794
563.73	102.1565
563.86	102.3003
563.98	102.5099
564.11	102.4256
564.23	102.3158
564.36	102.1674
564.49	102.2806
564.61	102.2655
564.74	102.3234
564.86	102.2655
564.99	102.1847
565.12	102.1583
565.24	102.0950
565.37	102.1724
565.49	102.3047
565.62	102.7835
565.75	102.2620
565.87	102.2412
566.00	102.6073
566.12	102.2935
566.25	102.0408
566.38	102.3107
566.50	102.2372
566.63	102.0350
566.75	102.3159
566.88	102.2209
567.01	102.4213
567.13	102.6805
567.26	102.4560
567.38	102.4860
567.51	102.4652
567.64	102.3566
567.76	102.2222
567.89	102.4038
568.01	102.1719
568.14	102.1483
568.26	102.1992
568.39	102.1021
568.52	102.0852
568.64	102.2135
568.77	102.1930
568.89	102.2998
569.02	102.3472
569.15	102.1260
569.27	101.8391
569.40	101.7847
569.52	101.6611
569.65	101.7000
569.77	101.9634
569.90	101.9389
570.03	102.2029
570.15	102.2775
570.28	102.5101
570.40	102.4404
570.53	102.6650
570.66	102.5830
570.78	102.6499
570.91	102.3764
571.03	102.3860
571.16	102.5385
571.28	102.4983
571.41	102.5538
571.54	102.5178
571.66	102.4721
571.79	102.4313
571.91	102.2784
572.04	101.8456
572.16	101.9059
572.29	101.9230
572.42	101.9390
572.54	101.9391
572.67	102.2894
572.79	102.3538
572.92	102.4399
573.04	102.6824
573.17	103.1158
573.29	102.8490
573.42	102.7465
573.55	102.7784
573.67	102.6711
573.80	102.5796
573.92	102.6857
574.05	102.7636
574.17	102.8281
574.30	102.9555
574.43	102.7975
574.55	103.0530
574.68	103.1416
574.80	103.2109
574.93	103.1083
575.05	103.1655
575.18	102.9608
575.30	102.7709
575.43	102.8011
575.56	102.7712
575.68	102.8812
575.81	102.8169
575.93	102.9202
576.06	102.9130
576.18	102.8932
576.31	102.4479
576.43	102.5450
576.56	102.6004
576.69	102.6170
576.81	102.6497
576.94	102.9638
577.06	103.1054
577.19	103.0950
577.31	102.8041
577.44	102.8687
577.56	102.8607
577.69	103.0124
577.82	103.4124
577.94	103.4600
578.07	103.2663
578.19	103.6320
578.32	103.6563
578.44	103.4140
578.57	103.7873
578.69	103.8993
578.82	103.6045
578.94	103.5308
579.07	103.5061
579.19	103.3809
579.32	103.6373
579.45	103.9217
579.57	103.8797
579.70	104.0552
579.82	103.9343
579.95	103.8952
580.07	103.6667
580.20	103.7365
580.32	103.6620
580.45	103.8113
580.57	103.6828
580.70	103.6463
580.82	104.0311
580.95	103.8216
581.08	103.9115
581.20	103.8983
581.33	104.0405
581.45	103.4615
581.58	103.9061
581.70	103.7588
581.83	103.7008
581.95	103.7048
582.08	103.9497
582.20	103.7373
582.33	103.8327
582.45	103.7830
582.58	103.7380
582.70	103.7312
582.83	103.6403
582.95	103.5535
583.08	103.5347
583.21	103.6043
583.33	103.8640
583.46	103.9263
583.58	103.8917
583.71	104.1802
583.83	104.2848
583.96	104.1079
584.08	104.1254
584.21	104.4251
584.33	104.5717
584.46	104.3295
584.58	104.1363
584.71	104.3153
584.83	104.3691
584.96	104.1525
585.08	104.2178
585.21	104.4796
585.33	104.3788
585.46	104.4339
585.58	104.5877
585.71	104.5456
585.83	104.6317
585.96	104.5407
586.08	104.3026
586.21	104.4297
586.33	104.5407
586.46	104.5013
586.59	104.5513
586.71	104.5183
586.84	104.4820
586.96	104.6148
587.09	104.2486
587.21	104.3401
587.34	104.6377
587.46	104.4276
587.59	104.4673
587.71	105.0585
587.84	105.2113
587.96	104.9313
588.09	105.0281
588.21	104.9851
588.34	104.7998
588.46	104.8046
588.59	105.0973
588.71	105.2232
588.84	104.9682
588.96	104.9776
589.09	105.1165
589.21	105.1461
589.34	104.9751
589.46	105.1958
589.59	105.4161
589.71	105.3863
589.84	105.2561
589.96	105.3503
590.09	105.4448
590.21	105.2791
590.34	105.3885
590.46	105.4142
590.59	105.2562
590.71	105.4701
590.84	105.2400
590.96	104.9682
591.09	105.0483
591.21	105.4680
591.34	105.0696
591.46	105.2519
591.59	105.2036
591.71	105.4015
591.83	105.1982
591.96	105.5136
592.08	105.6307
592.21	105.9070
592.33	105.9337
592.46	105.9335
592.58	105.7810
592.71	105.7508
592.83	105.4282
592.96	105.3134
593.08	105.5110
593.21	105.6999
593.33	105.7690
593.46	105.8534
593.58	105.7470
593.71	105.8315
593.83	105.5131
593.96	105.3727
594.08	105.5312
594.21	105.4754
594.33	105.4414
594.46	105.8652
594.58	105.9940
594.71	105.9922
594.83	105.6779
594.96	105.5193
595.08	105.5250
595.20	105.6781
595.33	105.2406
595.45	105.6497
595.58	105.9136
595.70	105.8970
595.83	105.6850
595.95	106.1678
596.08	106.2899
596.20	106.0701
596.33	106.0327
596.45	106.2425
596.58	106.0606
596.70	105.9792
596.83	105.9156
596.95	106.0659
597.08	105.9124
597.20	105.9712
597.32	105.9276
597.45	105.9876
597.57	105.8970
597.70	105.8421
597.82	105.9744
597.95	105.9496
598.07	105.9290
598.20	105.9652
598.32	105.9684
598.45	105.8374
598.57	106.0090
598.70	106.1436
598.82	105.8730
598.94	105.8140
599.07	105.8631
599.19	106.0592
599.32	105.7309
599.44	105.8453
599.57	105.9756
599.69	106.1865
599.82	105.6487
599.94	105.9093
600.07	106.2231
600.19	106.4171
600.31	106.0224
600.44	106.2461
600.56	106.3323
600.69	106.1764
600.81	106.1078
600.94	106.3069
601.06	106.2580
601.19	106.4282
601.31	106.2010
601.44	106.1388
601.56	106.2249
601.68	106.4197
601.81	106.0402
601.93	106.4196
602.06	106.6444
602.18	106.4592
602.31	106.2542
602.43	106.3948
602.56	106.2129
602.68	105.8776
602.80	106.1542
602.93	106.2423
603.05	106.2188
603.18	106.3367
603.30	106.5575
603.43	106.4028
603.55	106.4326
603.68	106.4723
603.80	106.3204
603.92	106.2074
604.05	106.4553
604.17	106.4631
604.30	106.3752
604.42	106.2359
604.55	106.2959
604.67	106.1571
604.79	106.0957
604.92	106.2537
605.04	106.4469
605.17	106.3566
605.29	106.0865
605.42	106.2060
605.54	106.0841
605.66	105.9902
605.79	105.8892
605.91	106.1325
606.04	105.9231
606.16	105.8887
606.29	106.0900
606.41	106.3269
606.53	106.2322
606.66	106.5228
606.78	106.6995
606.91	106.5731
607.03	106.6060
607.16	106.5877
607.28	106.3666
607.40	106.3882
607.53	106.5045
607.65	106.5285
607.78	106.4649
607.90	106.7550
608.03	106.7277
608.15	106.8251
608.27	106.8635
608.40	107.1594
608.52	106.8358
608.65	107.0000
608.77	106.7049
608.89	106.3382
609.02	106.3408
609.14	106.4135
609.27	106.3365
609.39	106.8752
609.52	107.2258
609.64	107.3197
609.76	107.3511
609.89	107.1085
610.01	106.8814
610.14	106.9143
610.26	106.6191
610.38	106.8711
610.51	107.1408
610.63	106.9934
610.76	106.9140
610.88	106.8166
611.01	106.6766
611.13	106.7458
611.25	106.8858
611.38	107.0413
611.50	107.3083
611.63	107.4687
611.75	107.3727
611.87	107.0632
612.00	106.8496
612.12	107.0529
612.25	106.9647
612.37	106.9601
612.49	106.9414
612.62	107.0824
612.74	106.8791
612.87	106.9470
612.99	106.7841
613.11	106.8045
613.24	106.7502
613.36	106.8129
613.49	106.7665
613.61	106.7907
613.73	107.0948
613.86	107.1501
613.98	107.0474
614.11	106.9072
614.23	106.9486
614.35	106.9516
614.48	106.9464
614.60	106.9681
614.72	107.1681
614.85	107.3681
614.97	107.4680
615.10	107.4229
615.22	107.4815
615.34	107.5886
615.47	107.5409
615.59	107.3961
615.72	107.6730
615.84	107.4005
615.96	107.3101
616.09	107.4733
616.21	107.4097
616.34	107.1564
616.46	107.5281
616.58	107.5307
616.71	107.3407
616.83	107.3527
616.95	107.4770
617.08	107.5435
617.20	107.6480
617.33	107.5108
617.45	107.6770
617.57	107.7017
617.70	107.5129
617.82	107.2964
617.95	107.4978
618.07	107.3292
618.19	107.1003
618.32	107.2852
618.44	107.5439
618.56	107.7888
618.69	107.7397
618.81	108.0164
618.94	107.9893
619.06	107.8578
619.18	107.7748
619.31	107.8019
619.43	107.5449
619.55	107.7978
619.68	107.9755
619.80	107.5671
619.92	107.6102
620.05	108.0504
620.17	108.1726
620.30	108.0701
620.42	108.4168
620.54	108.6614
620.67	108.5249
620.79	107.9856
620.91	107.9145
621.04	107.9300
621.16	108.0693
621.29	108.0171
621.41	108.2580
621.53	108.5416
621.66	108.3664
621.78	107.8955
621.90	108.1055
622.03	108.2216
622.15	108.1290
622.27	108.4602
622.40	108.7012
622.52	108.8363
622.64	108.8359
622.77	108.5592
622.89	108.4941
623.02	108.5553
623.14	108.2634
623.26	108.0425
623.39	108.3806
623.51	108.5431
623.63	108.3696
623.76	108.2809
623.88	108.4402
624.00	108.2551
624.13	108.0766
624.25	108.1679
624.37	108.1167
624.50	108.4736
624.62	108.8859
624.75	108.8136
624.87	109.1195
624.99	109.4418
625.12	108.7700
625.24	108.5369
625.36	108.7043
625.49	108.4526
625.61	108.1586
625.73	108.7507
625.86	108.7912
625.98	108.8889
626.10	108.9481
626.23	109.1419
626.35	109.1189
626.47	109.1602
626.60	109.0972
626.72	109.0441
626.84	109.1801
626.97	109.2332
627.09	108.9328
627.21	108.8245
627.34	109.2502
627.46	109.3256
627.58	109.0569
627.71	109.7788
627.83	109.7621
627.95	109.2181
628.08	109.1602
628.20	109.5327
628.32	109.2620
628.45	109.4296
628.57	109.7599
628.69	109.6621
628.82	109.7436
628.94	109.7605
629.06	109.7852
629.19	110.0691
629.31	110.1956
629.43	110.0533
629.56	109.8923
629.68	110.0945
629.80	110.0733
629.93	110.1994
630.05	110.2164
630.17	110.6372
630.30	110.5249
630.42	110.5847
630.54	110.7578
630.67	110.5525
630.79	110.4285
630.91	110.4443
631.04	110.4032
631.16	110.3161
631.28	110.6825
631.41	110.5195
631.53	110.4316
631.65	110.2548
631.78	110.1512
631.90	110.3490
632.02	110.3206
632.14	110.5629
632.27	110.8153
632.39	110.6300
632.51	110.4814
632.64	110.7660
632.76	110.8014
632.88	110.8744
633.01	111.1404
633.13	110.7378
633.25	110.8902
633.38	110.9982
633.50	110.9775
633.62	111.2001
633.75	111.5733
633.87	111.4928
633.99	111.6651
634.11	111.5691
634.24	111.5248
634.36	111.5908
634.48	111.3118
634.61	111.2401
634.73	111.3725
634.85	111.4135
634.98	111.5021
635.10	111.4702
635.22	111.3873
635.35	111.7378
635.47	111.7924
635.59	111.7440
635.71	111.9730
635.84	111.9032
635.96	111.7914
636.08	111.7209
636.21	111.6259
636.33	111.9298
636.45	112.2416
636.58	111.8945
636.70	112.0832
636.82	112.6264
636.94	112.4763
637.07	112.2995
637.19	112.5742
637.31	112.7078
637.44	112.4160
637.56	112.5073
637.68	112.6157
637.81	113.0762
637.93	112.7992
638.05	112.3974
638.17	112.4597
638.30	112.5221
638.42	112.0569
638.54	112.1736
638.67	112.5077
638.79	112.6390
638.91	112.6246
639.03	112.7692
639.16	112.8093
639.28	112.9487
639.40	112.5151
639.53	112.5189
639.65	112.5987
639.77	112.4716
639.89	112.3967
640.02	112.8459
640.14	112.6045
640.26	112.6079
640.39	112.8673
640.51	112.7807
640.63	112.5905
640.75	112.9575
640.88	112.9214
641.00	112.4354
641.12	112.8398
641.24	113.2517
641.37	112.8563
641.49	112.9789
641.61	113.4237
641.74	113.4273
641.86	113.0170
641.98	113.3843
642.10	113.4550
642.23	113.5026
642.35	113.2464
642.47	113.3078
642.60	113.4353
642.72	113.3353
642.84	113.2893
642.96	113.3712
643.09	113.6111
643.21	113.6461
643.33	113.6809
643.45	113.6353
643.58	113.9384
643.70	113.9088
643.82	113.9155
643.94	114.0450
644.07	114.1855
644.19	113.9295
644.31	114.0214
644.44	114.0068
644.56	113.9534
644.68	114.0319
644.80	114.1973
644.93	114.0608
645.05	114.1369
645.17	114.2407
645.29	114.2750
645.42	114.0703
645.54	114.1187
645.66	114.1691
645.78	114.0582
645.91	113.8524
646.03	114.1613
646.15	114.2819
646.27	114.2504
646.40	114.1451
646.52	114.5060
646.64	114.6380
646.76	114.4858
646.89	114.3980
647.01	114.3912
647.13	114.5476
647.25	114.3652
647.38	114.3139
647.50	114.6182
647.62	114.9824
647.74	114.5671
647.87	114.3467
647.99	114.5868
648.11	114.6459
648.23	114.4546
648.36	114.7483
648.48	115.1462
648.60	115.3617
648.72	114.8169
648.85	114.8962
648.97	114.9088
649.09	114.8690
649.21	114.7080
649.34	115.0752
649.46	115.2276
649.58	115.3951
649.70	115.1869
649.83	115.1454
649.95	115.1277
650.07	114.9816
650.19	114.7164
650.32	114.7945
650.44	114.8706
650.56	114.9027
650.68	115.0055
650.81	114.9572
650.93	115.0964
651.05	114.9989
651.17	115.0749
651.29	115.0905
651.42	115.3975
651.54	115.6208
651.66	115.6377
651.78	115.1751
651.91	115.1930
652.03	115.2327
652.15	115.0562
652.27	115.3302
652.40	115.9264
652.52	116.2172
652.64	115.7800
652.76	115.8552
652.88	115.8725
653.01	116.0618
653.13	115.7065
653.25	115.9325
653.37	115.9459
653.50	116.0201
653.62	115.5175
653.74	115.5108
653.86	115.7897
653.98	115.7987
654.11	115.7165
654.23	115.7085
654.35	115.8495
654.47	115.9500
654.60	116.3229
654.72	116.0360
654.84	116.3772
654.96	116.4931
655.08	116.3163
655.21	115.9214
655.33	116.2391
655.45	116.3460
655.57	116.2083
655.70	116.0813
655.82	116.1365
655.94	116.4719
656.06	116.2495
656.18	116.2499
656.31	116.5010
656.43	116.6155
656.55	116.2956
656.67	116.3401
656.79	116.6549
656.92	116.7271
657.04	116.4817
657.16	116.6210
657.28	116.6207
657.40	116.6524
657.53	116.5186
657.65	116.4216
657.77	116.4689
657.89	116.7414
658.01	116.4973
658.14	116.6041
658.26	117.1294
658.38	117.0205
658.50	116.5832
658.62	116.8004
658.75	116.6996
658.87	116.8076
658.99	116.8879
659.11	116.8973
659.23	116.9383
659.36	117.0199
659.48	116.8020
659.60	116.7588
659.72	117.0218
659.84	116.9365
659.97	116.4629
660.09	116.2322
660.21	116.4574
660.33	116.7391
660.45	116.6312
660.58	116.8511
660.70	117.2332
660.82	116.8898
660.94	116.4384
661.06	116.3192
661.19	116.5960
661.31	116.3967
661.43	116.2611
661.55	116.2173
661.67	116.4903
661.80	116.3666
661.92	116.3499
662.04	116.4812
662.16	116.8993
662.28	116.8443
662.40	116.8437
662.53	117.0439
662.65	116.9999
662.77	117.0511
662.89	117.2173
663.01	117.2709
663.14	117.0118
663.26	117.3106
663.38	117.0404
663.50	116.5979
663.62	116.5702
663.74	116.7200
663.87	116.4441
663.99	116.0892
664.11	116.4011
664.23	116.6973
664.35	116.6222
664.48	117.0058
664.60	117.6670
664.72	117.7841
664.84	117.4476
664.96	117.6287
665.08	117.3961
665.21	117.5592
665.33	117.3798
665.45	117.4051
665.57	117.3898
665.69	117.4796
665.81	117.2850
665.94	117.2546
666.06	117.3191
666.18	117.5989
666.30	117.4529
666.42	117.3011
666.54	117.5003
666.67	117.3502
666.79	117.0251
666.91	117.2711
667.03	117.3186
667.15	117.2924
667.27	117.6503
667.40	117.4179
667.52	117.2535
667.64	117.4664
667.76	117.2589
667.88	116.9508
668.00	117.0678
668.13	117.1342
668.25	117.0300
668.37	117.0295
668.49	117.4288
668.61	117.7285
668.73	117.7349
668.85	117.5635
668.98	117.9194
669.10	117.6621
669.22	117.2352
669.34	117.4031
669.46	117.3862
669.58	117.0920
669.71	117.3195
669.83	117.5896
669.95	117.4509
670.07	117.4878
670.19	117.7639
670.31	117.6870
670.43	117.5092
670.56	117.4037
670.68	117.6295
670.80	117.0923
670.92	116.9508
671.04	117.1764
671.16	117.2936
671.28	116.9229
671.41	117.2930
671.53	117.6053
671.65	117.2144
671.77	116.9410
671.89	117.2180
672.01	117.4938
672.13	117.1418
672.26	117.6369
672.38	117.6994
672.50	117.4957
672.62	117.0634
672.74	117.1931
672.86	116.9501
672.98	117.1009
673.11	116.9553
673.23	117.2058
673.35	117.2055
673.47	117.5371
673.59	117.3982
673.71	117.2236
673.83	117.0597
673.96	117.1932
674.08	116.7698
674.20	116.8183
674.32	117.2989
674.44	117.4804
674.56	117.1302
674.68	117.1387
674.80	117.3643
674.93	117.3095
675.05	117.0155
675.17	117.0519
675.29	117.1970
675.41	117.0162
675.53	117.0427
675.65	117.0631
675.77	117.2762
675.90	117.4783
676.02	117.2178
676.14	116.9042
676.26	117.1729
676.38	117.1131
676.50	117.0365
676.62	117.6415
676.74	117.9051
676.87	117.5826
676.99	117.5044
677.11	117.5251
677.23	117.2442
677.35	117.4774
677.47	117.8201
677.59	117.7642
677.71	117.6638
677.83	117.4957
677.96	117.3674
678.08	117.3607
678.20	117.6208
678.32	117.7064
678.44	117.6207
678.56	117.5473
678.68	117.7092
678.80	117.6974
678.93	117.6190
679.05	117.7411
679.17	117.9455
679.29	117.8255
679.41	117.7677
679.53	117.7345
679.65	117.8557
679.77	117.6639
679.89	117.3052
680.01	117.5602
680.14	117.8038
680.26	117.6769
680.38	117.6751
680.50	117.8915
680.62	117.5766
680.74	117.3926
680.86	117.5379
680.98	117.1830
681.10	117.2683
681.22	117.5024
681.35	117.7161
681.47	117.1679
681.59	117.5551
681.71	117.5273
681.83	117.0905
681.95	116.4826
682.07	116.8640
682.19	116.8073
682.31	116.4242
682.43	116.7390
682.56	117.1211
682.68	117.2473
682.80	117.1076
682.92	117.4273
683.04	117.4257
683.16	117.1480
683.28	117.0759
683.40	117.1258
683.52	117.1300
683.64	117.0629
683.76	117.2683
683.89	117.1024
684.01	117.0943
684.13	117.0739
684.25	116.9676
684.37	117.1086
684.49	117.0507
684.61	117.1967
684.73	117.3594
684.85	117.1785
684.97	117.1909
685.09	117.7674
685.21	117.5445
685.34	117.5541
685.46	117.8758
685.58	117.6372
685.70	117.5794
685.82	117.8228
685.94	117.7417
686.06	117.6463
686.18	117.7534
686.30	117.4227
686.42	117.4927
686.54	117.1141
686.66	117.1424
686.79	116.9001
686.91	116.9565
687.03	117.0848
687.15	117.5323
687.27	117.3524
687.39	117.6709
687.51	117.6949
687.63	117.3296
687.75	116.8256
687.87	117.1418
687.99	116.9609
688.11	116.7290
688.23	116.8916
688.35	117.2797
688.48	117.1794
688.60	117.1508
688.72	117.4379
688.84	117.5797
688.96	117.7883
689.08	117.4010
689.20	117.5216
689.32	117.6483
689.44	117.7587
689.56	117.5176
689.68	117.8459
689.80	117.8171
689.92	117.6584
690.04	117.3495
690.16	117.2037
690.28	117.5094
690.41	117.4348
690.53	117.0856
690.65	116.9270
690.77	117.0407
690.89	116.7437
691.01	116.8757
691.13	117.0292
691.25	117.2142
691.37	117.5167
691.49	117.1866
691.61	117.0752
691.73	117.4839
691.85	117.6394
691.97	117.0669
692.09	117.4095
692.21	117.3388
692.33	117.3829
692.45	117.2666
692.57	117.3143
692.70	117.4654
692.82	117.6069
692.94	117.2352
693.06	117.2314
693.18	117.6008
693.30	117.1957
693.42	117.2081
693.54	117.4091
693.66	117.6738
693.78	117.4576
693.90	117.8138
694.02	118.0562
694.14	117.9811
694.26	117.4748
694.38	117.4467
694.50	117.4534
694.62	117.3116
694.74	117.1806
694.86	117.3672
694.98	117.3415
695.10	117.4306
695.22	117.3427
695.34	117.5144
695.46	117.5063
695.58	117.6799
695.71	117.5464
695.83	117.2288
695.95	117.2870
696.07	117.4215
696.19	117.5135
696.31	117.2700
696.43	117.5642
696.55	117.6585
696.67	117.6981
696.79	117.6741
696.91	117.5587
697.03	117.5965
697.15	117.6235
697.27	117.2705
697.39	117.3152
697.51	117.6894
697.63	117.3859
697.75	117.2182
697.87	117.6233
697.99	117.4825
698.11	117.4280
698.23	117.7092
698.35	117.6687
698.47	117.7768
698.59	117.5629
698.71	117.7184
698.83	117.8633
698.95	117.9826
699.07	117.7312
699.19	118.0641
699.31	117.8928
699.43	117.9677
699.55	117.9918
699.67	118.1023
699.79	118.1229
699.91	118.2125
700.03	117.9994
700.15	117.8610
700.27	118.0564
700.39	117.8866
700.51	117.8980
700.63	117.8770
700.75	118.1918
700.87	117.9371
700.99	118.2906
701.11	118.2493
701.24	118.0242
701.36	117.6900
701.48	117.8223
701.60	117.2925
701.72	117.3605
701.84	117.8616
701.96	117.8110
702.08	117.5036
702.20	117.8385
702.32	117.9664
702.44	117.9716
702.56	118.1719
702.68	118.0944
702.80	118.0660
702.92	118.0833
703.04	118.0639
703.16	118.3292
703.28	118.6631
703.40	118.6169
703.52	118.3882
703.64	118.1545
703.76	117.8669
703.88	117.8281
704.00	117.6892
704.12	117.8317
704.24	117.8245
704.36	117.8727
704.48	117.6642
704.60	117.7969
704.72	117.3920
704.84	117.4757
704.96	117.6459
705.07	117.9831
705.19	117.9171
705.31	118.4107
705.43	118.2899
705.55	118.0900
705.67	118.1618
705.79	118.3876
705.91	118.1467
706.03	118.1594
706.15	118.3104
706.27	118.0459
706.39	118.0400
706.51	118.2187
706.63	118.3099
706.75	118.1333
706.87	118.2763
706.99	118.5308
707.11	118.5299
707.23	118.5516
707.35	118.4417
707.47	118.2294
707.59	117.9644
707.71	117.7741
707.83	117.7719
707.95	117.5498
708.07	117.5727
708.19	117.8669
708.31	117.9929
708.43	117.9594
708.55	118.3855
708.67	118.4328
708.79	118.0974
708.91	117.9458
709.03	118.1130
709.15	117.9726
709.27	117.9767
709.39	117.8896
709.51	117.9623
709.63	118.0950
709.75	118.0711
709.87	118.1208
709.99	118.2980
710.11	118.5426
710.23	117.9974
710.35	117.9517
710.47	117.9994
710.58	117.7787
710.70	117.5464
710.82	117.8882
710.94	117.9864
711.06	118.0499
711.18	117.8504
711.30	117.7367
711.42	117.6836
711.54	117.9805
711.66	117.8372
711.78	117.8647
711.90	118.2162
712.02	118.5278
712.14	118.0581
712.26	117.8758
712.38	118.3755
712.50	118.3948
712.62	118.2530
712.74	118.0915
712.86	118.4515
712.98	118.2784
713.10	117.8294
713.22	117.5031
713.34	117.7666
713.45	117.6518
713.57	117.5473
713.69	117.8236
713.81	118.3058
713.93	118.9015
714.05	118.7854
714.17	118.7022
714.29	118.9118
714.41	118.5925
714.53	118.0676
714.65	118.2997
714.77	118.0501
714.89	117.8162
715.01	117.8664
715.13	117.9026
715.25	117.9583
715.37	118.2514
715.49	118.2757
715.61	118.0720
715.72	118.2182
715.84	118.1632
715.96	118.0752
716.08	118.0115
716.20	118.2875
716.32	118.1931
716.44	118.0935
716.56	118.0003
716.68	118.0620
716.80	118.2110
716.92	118.3841
717.04	118.5008
717.16	118.9898
717.28	118.8667
717.40	118.6032
717.52	118.4358
717.63	118.3471
717.75	118.2735
717.87	118.5243
717.99	118.3755
718.11	118.2628
718.23	118.1563
718.35	118.3003
718.47	118.2175
718.59	118.5552
718.71	118.6027
718.83	119.0280
718.95	118.7973
719.07	118.8089
719.19	118.7165
719.30	118.7860
719.42	118.5383
719.54	118.5537
719.66	118.7711
719.78	118.7124
719.90	118.8096
720.02	118.6715
720.14	118.7215
720.26	118.4989
720.38	118.8390
720.50	118.5992
720.62	119.0026
720.74	118.8800
720.85	118.5660
720.97	118.3945
721.09	118.4102
721.21	118.0947
721.33	118.2317
721.45	118.4279
721.57	118.6713
721.69	118.5136
721.81	118.2141
721.93	118.2547
722.05	118.5104
722.16	118.1283
722.28	118.1147
722.40	118.0786
722.52	118.2647
722.64	118.0819
722.76	118.0022
722.88	118.4855
723.00	118.7685
723.12	118.8396
723.24	118.5929
723.36	118.5306
723.47	118.3645
723.59	118.3617
723.71	118.2573
723.83	118.5563
723.95	118.5663
724.07	118.2150
724.19	118.4490
724.31	118.5698
724.43	118.7638
724.55	118.3779
724.66	118.8896
724.78	118.9074
724.90	118.5251
725.02	118.1827
725.14	119.0464
725.26	118.8644
725.38	118.5701
725.50	118.5067
725.62	118.8322
725.74	118.9791
725.85	119.1792
725.97	118.0361
726.09	118.4263
726.21	118.4951
726.33	118.2305
726.45	118.0628
726.57	119.4030
726.69	119.0138
726.81	118.7889
726.92	118.5404
727.04	118.5001
727.16	118.4145
727.28	118.5714
727.40	118.0249
727.52	117.8679
727.64	117.8745
727.76	118.0744
727.88	118.0456
727.99	118.5110
728.11	118.7538
728.23	118.8658
728.35	118.6240
728.47	118.5371
728.59	118.7307
728.71	118.7339
728.83	118.4480
728.94	118.3302
729.06	118.4008
729.18	118.2821
729.30	118.1404
729.42	118.2323
729.54	118.5300
729.66	118.4444
729.78	118.3427
729.90	118.7573
730.01	118.8247
730.13	118.8994
730.25	118.8996
730.37	119.1152
730.49	118.9128
730.61	118.9362
730.73	118.9254
730.84	118.9755
730.96	119.1042
731.08	119.2442
731.20	118.6822
731.32	118.6325
731.44	118.6734
731.56	118.2234
731.68	118.0124
731.79	118.7342
731.91	118.5059
732.03	118.6151
732.15	118.8908
732.27	118.7550
732.39	118.8258
732.51	119.2311
732.62	118.8937
732.74	118.9589
732.86	119.2957
732.98	119.0864
733.10	118.4857
733.22	119.0474
733.34	118.8427
733.45	118.7068
733.57	118.6494
733.69	119.0452
733.81	118.7733
733.93	118.8055
734.05	118.7805
734.17	118.9228
734.28	119.2051
734.40	119.3265
734.52	119.0651
734.64	119.2133
734.76	119.4590
734.88	119.1153
735.00	118.6062
735.11	119.1545
735.23	119.3728
735.35	118.8961
735.47	119.0048
735.59	119.4733
735.71	119.0882
735.83	118.6474
735.94	118.8100
736.06	118.6492
736.18	118.5664
736.30	119.0828
736.42	119.2835
736.54	118.7355
736.65	118.9906
736.77	119.2087
736.89	118.3686
737.01	118.7007
737.13	119.3952
737.25	119.1287
737.36	118.8684
737.48	119.4865
737.60	119.0996
737.72	118.7186
737.84	118.9682
737.96	118.9589
738.08	119.1828
738.19	119.1007
738.31	119.4630
738.43	119.2666
738.55	119.5353
738.67	119.3254
738.79	119.3874
738.90	119.6404
739.02	119.9710
739.14	119.6576
739.26	119.3676
739.38	119.6603
739.50	119.4343
739.61	119.2455
739.73	119.3046
739.85	119.2699
739.97	119.4714
740.09	119.4622
740.20	119.3248
740.32	119.8313
740.44	120.2412
740.56	119.9681
740.68	119.9828
740.80	119.9027
740.91	119.4913
741.03	119.5337
741.15	119.2503
741.27	119.2236
741.39	119.2377
741.51	119.4283
741.62	119.4478
741.74	119.7647
741.86	119.8345
741.98	120.0453
742.10	119.8581
742.21	119.8168
742.33	119.2934
742.45	119.2616
742.57	119.1038
742.69	119.2757
742.80	119.2436
742.92	119.7864
743.04	119.4691
743.16	119.9162
743.28	119.9230
743.40	120.0845
743.51	119.9972
743.63	120.3599
743.75	120.0600
743.87	119.9084
743.99	119.6599
744.10	119.7719
744.22	119.5592
744.34	119.3793
744.46	119.6195
744.58	119.3703
744.69	119.2165
744.81	119.7445
744.93	119.7410
745.05	119.4336
745.17	119.9309
745.28	120.0410
745.40	119.8458
745.52	120.0550
745.64	120.4083
745.76	120.5474
745.87	120.2767
745.99	120.2641
746.11	120.3049
746.23	120.2774
746.35	119.3741
746.46	119.3493
746.58	119.1545
746.70	119.1439
746.82	119.2545
746.94	120.0787
747.05	120.4432
747.17	120.8110
747.29	120.3482
747.41	120.5039
747.53	120.4723
747.64	120.2384
747.76	119.7736
747.88	120.3554
748.00	120.2793
748.12	120.3137
748.23	120.3124
748.35	120.4556
748.47	120.5470
748.59	120.4469
748.70	120.2972
748.82	120.4739
748.94	120.4637
749.06	120.5339
749.18	120.2847
749.29	120.3886
749.41	120.5282
749.53	120.6030
749.65	120.7454
749.76	121.1025
749.88	120.8713
750.00	120.5494
750.12	120.6158
750.24	120.4981
750.35	120.0354
750.47	120.3144
750.59	120.2754
750.71	120.7672
750.82	120.8371
750.94	121.1567
751.06	121.1602
751.18	121.4466
751.30	120.9008
751.41	120.8010
751.53	120.9206
751.65	120.6413
751.77	120.5294
751.88	121.0271
752.00	120.6503
752.12	120.6131
752.24	120.8248
752.35	120.7978
752.47	120.2276
752.59	120.7970
752.71	120.4107
752.83	120.7264
752.94	120.8061
753.06	121.0382
753.18	120.8440
753.30	121.2182
753.41	120.8364
753.53	120.8314
753.65	121.0299
753.77	120.9748
753.88	120.7420
754.00	120.6093
754.12	120.8296
754.24	121.2190
754.35	121.0137
754.47	121.1018
754.59	121.4430
754.71	121.4440
754.82	120.6952
754.94	120.9609
755.06	120.9828
755.18	120.9819
755.29	120.6639
755.41	120.9308
755.53	120.9670
755.65	121.0826
755.76	120.6410
755.88	120.7872
756.00	121.0639
756.12	121.0258
756.23	120.5430
756.35	120.8924
756.47	121.2870
756.59	120.9590
756.70	121.1150
756.82	121.3854
756.94	121.3316
757.06	121.0899
757.17	121.3606
757.29	120.9748
757.41	121.1449
757.53	121.1234
757.64	120.8631
757.76	120.6364
757.88	120.9016
758.00	121.3165
758.11	121.4472
758.23	121.7549
758.35	121.7513
758.47	121.8363
758.58	121.5215
758.70	121.7557
758.82	121.4865
758.94	121.7658
759.05	121.7765
759.17	121.3457
759.29	121.0508
759.40	121.2318
759.52	120.7492
759.64	120.3658
759.76	120.8089
759.87	120.9516
759.99	121.3359
760.11	121.7182
760.23	122.0188
760.34	122.0405
760.46	122.0571
760.58	121.5760
760.70	121.4196
760.81	121.3754
760.93	121.4396
761.05	121.7556
761.16	121.9888
761.28	122.2947
761.40	121.9683
761.52	121.7478
761.63	121.4226
761.75	121.4599
761.87	121.3387
761.98	121.9014
762.10	122.0147
762.22	122.4345
762.34	122.2183
762.45	121.5396
762.57	121.5963
762.69	121.4990
762.81	121.4332
762.92	121.4358
763.04	121.6186
763.16	121.4746
763.27	121.5759
763.39	121.1256
763.51	121.2907
763.63	122.0101
763.74	121.9592
763.86	122.0790
763.98	121.9801
764.09	122.1470
764.21	121.8374
764.33	121.9106
764.44	121.7091
764.56	121.8822
764.68	121.8552
764.80	121.3564
764.91	121.4655
765.03	121.6986
765.15	122.0289
765.26	121.6193
765.38	122.1728
765.50	121.9733
765.62	121.8076
765.73	121.7513
765.85	121.8414
765.97	122.0156
766.08	122.2565
766.20	122.2921
766.32	121.8576
766.43	121.9771
766.55	121.7713
766.67	121.6244
766.79	121.6733
766.90	121.9586
767.02	122.1804
767.14	121.3423
767.25	121.2625
767.37	121.3237
767.49	121.0293
767.60	120.7202
767.72	121.6464
767.84	121.9216
767.95	121.7501
768.07	121.9339
768.19	122.1119
768.31	122.0941
768.42	121.9061
768.54	121.6628
768.66	121.5864
768.77	121.7786
768.89	121.7729
769.01	121.5937
769.12	121.9545
769.24	122.2617
769.36	122.2776
769.47	121.8981
769.59	121.9495
769.71	121.8889
769.82	121.9679
769.94	121.5192
770.06	121.9535
770.17	121.9797
770.29	121.6802
770.41	121.5963
770.53	121.8500
770.64	121.6406
770.76	121.6041
770.88	122.4709
770.99	122.5141
771.11	122.6486
771.23	122.4975
771.34	122.3506
771.46	121.8952
771.58	121.7004
771.69	121.4389
771.81	122.0228
771.93	121.8957
772.04	121.9593
772.16	121.9937
772.28	122.2609
772.39	121.7974
772.51	122.4533
772.63	122.5246
772.74	121.9473
772.86	122.0876
772.98	122.3857
773.09	122.1689
773.21	122.0714
773.33	122.9595
773.44	122.5129
773.56	122.1116
773.68	122.3094
773.79	122.3780
773.91	122.3151
774.03	122.2762
774.14	122.7729
774.26	123.0633
774.38	122.8974
774.49	122.5369
774.61	122.8493
774.73	122.7181
774.84	122.1410
774.96	122.4551
775.08	122.6271
775.19	122.4503
775.31	122.4535
775.43	122.7941
775.54	122.1467
775.66	122.4823
775.77	122.3105
775.89	122.0649
776.01	121.8140
776.12	122.6358
776.24	122.5188
776.36	122.4711
776.47	122.4393
776.59	122.6684
776.71	122.5560
776.82	122.4783
776.94	122.7007
777.06	123.2233
777.17	123.5053
777.29	123.2157
777.41	123.1673
777.52	122.9608
777.64	123.0582
777.75	122.8317
777.87	122.5705
777.99	122.3830
778.10	122.7301
778.22	122.5613
778.34	122.2700
778.45	122.5808
778.57	122.7063
778.69	122.1798
778.80	122.0839
778.92	122.3590
779.04	122.3534
779.15	122.1408
779.27	122.3137
779.38	122.3885
779.50	122.2025
779.62	122.6133
779.73	122.3214
779.85	122.8904
779.97	123.2443
780.08	123.0739
780.20	122.6073
780.31	123.1630
780.43	123.1303
780.55	122.3783
780.66	122.0765
780.78	122.5812
780.90	122.8877
781.01	122.8357
781.13	122.6562
781.25	123.3432
781.36	123.0251
781.48	122.2285
781.59	121.9497
781.71	122.7673
781.83	123.1389
781.94	122.5932
782.06	123.1003
782.18	123.8973
782.29	123.3109
782.41	122.6428
782.52	123.2375
782.64	123.4351
782.76	123.4756
782.87	123.2430
782.99	122.6711
783.10	122.8393
783.22	122.6584
783.34	121.8922
783.45	122.3838
783.57	122.7159
783.69	121.9685
783.80	121.7001
783.92	121.9016
784.03	121.8121
784.15	122.2529
784.27	122.8175
784.38	122.9860
784.50	123.0881
784.61	123.3127
784.73	123.4657
784.85	122.9726
784.96	122.9228
785.08	122.7988
785.19	122.9764
785.31	122.8651
785.43	122.8177
785.54	122.7688
785.66	122.4345
785.77	122.5406
785.89	122.4563
786.01	122.9092
786.12	122.7728
786.24	123.0901
786.35	122.8222
786.47	123.0821
786.59	122.9091
786.70	123.3312
786.82	123.1417
786.93	123.0213
787.05	122.8333
787.17	123.2216
787.28	122.8736
787.40	122.9022
787.51	123.2307
787.63	122.8833
787.75	122.3200
787.86	122.5909
787.98	122.8146
788.09	122.2372
788.21	122.4028
788.33	123.1907
788.44	123.0204
788.56	123.3186
788.67	123.4727
788.79	123.7687
788.91	123.6639
789.02	123.2277
789.14	122.6819
789.25	122.9399
789.37	122.6872
789.48	122.6642
789.60	122.9946
789.72	122.7589
789.83	123.0719
789.95	123.5485
790.06	122.8263
790.18	122.8477
790.30	123.0974
790.41	122.6087
790.53	122.3244
790.64	122.6594
790.76	122.9113
790.87	122.8881
790.99	122.9218
791.11	123.0110
791.22	122.8337
791.34	122.7518
791.45	123.0350
791.57	123.3087
791.68	122.6243
791.80	122.7039
791.92	122.9226
792.03	122.9431
792.15	122.7405
792.26	123.0058
792.38	123.0464
792.49	123.0499
792.61	123.2475
792.73	123.8001
792.84	125.7247
792.96	120.8688
793.07	121.2354
793.19	122.0651
793.30	122.2346
793.42	121.1283
793.54	125.1858
793.65	125.0001
793.77	124.3889
793.88	123.6951
794.00	123.2452
794.11	123.7938
794.23	123.8097
794.34	123.9053
794.46	122.9317
794.58	122.4586
794.69	123.5289
794.81	123.8202
794.92	122.2917
795.04	122.8341
795.15	123.0996
795.27	122.9309
795.39	122.6614
795.50	123.8569
795.62	124.2852
795.73	124.4087
795.85	123.4888
795.96	123.5312
796.08	123.4944
796.19	123.7211
796.31	123.7158
796.42	123.8339
796.54	123.8926
796.66	124.2971
796.77	123.4290
796.89	123.9017
797.00	124.4160
797.12	123.7379
797.23	122.9222
797.35	123.2974
797.46	122.5969
797.58	122.5787
797.69	122.8992
797.81	123.3217
797.93	123.6385
798.04	123.5048
798.16	123.6967
798.27	123.7812
798.39	123.8651
798.50	123.9298
798.62	123.5222
798.73	123.3172
798.85	123.2199
798.96	122.6072
799.08	122.3062
799.19	123.1956
799.31	123.7152
799.43	123.7417
799.54	123.5616
799.66	123.8852
799.77	124.5521
799.89	123.9957
800.00	123.3666
800.12	123.4381
800.23	123.8100
800.35	123.4185
800.46	122.9604
800.58	123.4428
800.69	123.9839
800.81	123.0555
800.92	123.0148
801.04	123.8558
801.16	124.1176
801.27	124.0143
801.39	124.4417
801.50	123.7658
801.62	123.0132
801.73	123.2256
801.85	123.0381
801.96	122.5726
802.08	123.5253
802.19	123.9183
802.31	122.9308
802.42	122.7665
802.54	123.5291
802.65	122.5840
802.77	123.2383
802.88	123.2792
803.00	124.0601
803.11	124.1047
803.23	124.4085
803.34	124.1121
803.46	124.3046
803.57	124.3084
803.69	123.6085
803.80	123.8349
803.92	123.4114
804.03	123.3985
804.15	122.8127
804.26	123.5319
804.38	123.1294
804.50	122.8525
804.61	122.9950
804.73	123.7520
804.84	123.4324
804.96	123.6732
805.07	123.8295
805.19	123.7038
805.30	123.2554
805.42	123.1293
805.53	123.2870
805.65	123.7120
805.76	123.8759
805.88	123.5684
805.99	123.7389
806.11	123.4204
806.22	123.1442
806.34	123.3881
806.45	123.2219
806.57	123.5261
806.68	123.4705
806.80	123.1873
806.91	123.4881
807.03	124.0293
807.14	123.9052
807.26	123.7252
807.37	124.4975
807.49	123.9463
807.60	123.3316
807.72	123.4631
807.83	124.1440
807.95	123.6815
808.06	123.3761
808.17	123.9751
808.29	123.3529
808.40	122.6044
808.52	122.0672
808.63	122.7205
808.75	122.1780
808.86	122.4539
808.98	122.7829
809.09	123.5828
809.21	123.2876
809.32	124.4675
809.44	124.3792
809.55	124.8988
809.67	124.2539
809.78	123.7725
809.90	123.3561
810.01	122.7479
810.13	122.8241
810.24	123.6435
810.36	124.3370
810.47	123.6825
810.59	123.6348
810.70	123.5026
810.82	123.2905
810.93	123.3737
811.05	123.8138
811.16	124.1043
811.27	122.9040
811.39	123.1621
811.50	123.9883
811.62	123.6070
811.73	123.7563
811.85	124.5645
811.96	124.2920
812.08	123.7609
812.19	124.1774
812.31	124.9571
812.42	124.9675
812.54	124.2484
812.65	123.7561
812.77	123.5786
812.88	123.1592
813.00	123.9523
813.11	124.7393
813.22	125.2747
813.34	124.4443
813.45	123.6085
813.57	123.5348
813.68	124.2929
813.80	124.6124
813.91	124.2485
814.03	125.3622
814.14	124.5182
814.26	123.2138
814.37	122.8579
814.49	123.9678
814.60	123.2135
814.71	123.6862
814.83	123.7758
814.94	122.9127
815.06	123.5709
815.17	124.7749
815.29	123.3262
815.40	123.8713
815.52	125.0900
815.63	124.2335
815.75	124.4005
815.86	125.6678
815.97	124.9815
816.09	123.9908
816.20	125.7521
816.32	124.7161
816.43	125.1552
816.55	124.2230
816.66	125.1448
816.78	124.0471
816.89	125.0104
817.00	125.2202
817.12	125.5968
817.23	125.0268
817.35	125.9301
817.46	123.6778
817.58	123.5507
817.69	124.3441
817.81	124.0967
817.92	122.6224
818.03	124.9071
818.15	125.0077
818.26	125.0764
818.38	129.2277
818.49	135.0368
818.61	115.4211
818.72	116.4680
818.83	123.0262
818.95	120.7929
819.06	114.4740
819.18	135.2536
819.29	133.6438
819.41	126.6524
819.52	125.2275
819.64	127.2349
819.75	126.8680
819.86	125.1457
819.98	125.6363
820.09	126.5570
820.21	123.9848
820.32	121.9925
820.44	125.0913
820.55	124.8373
820.66	124.0409
820.78	124.8664
820.89	127.0268
821.01	125.2809
821.12	127.2178
821.23	124.2663
821.35	124.1275
821.46	125.9033
821.58	127.2587
821.69	123.9590
821.81	125.7230
821.92	124.7760
822.03	124.9751
822.15	124.5790
822.26	124.7083
822.38	125.1971
822.49	126.2895
822.61	123.7071
822.72	123.5141
822.83	127.3019
822.95	126.6032
823.06	125.0008
823.18	125.2184
823.29	126.3393
823.40	128.4286
823.52	124.5388
823.63	127.1570
823.75	132.0058
823.86	127.3676
823.97	125.7600
824.09	131.2281
824.20	132.4589
824.32	128.5268
824.43	127.6344
824.55	128.0803
824.66	129.2628
824.77	124.8598
824.89	125.5439
825.00	128.7382
825.12	127.7975
825.23	129.1728
825.34	127.5451
825.46	126.4969
825.57	132.3452
825.69	130.2734
825.80	130.7691
825.91	132.7294
826.03	136.2102
826.14	129.3959
826.26	128.8205
826.37	124.5427
826.48	131.4350
826.60	126.1989
826.71	126.4686
826.83	118.3102
826.94	115.4501
827.05	114.7549
827.17	118.2799
827.28	122.6929
827.39	128.5801
827.51	132.6864
827.62	129.6646
827.74	135.8977
827.85	135.0537
827.96	120.4645
828.08	133.3264
828.19	168.7256
828.31	150.0186
828.42	134.9703
828.53	145.1820
828.65	49.7020
828.76	0.0000
828.87	0.0000
828.99	0.0000
