Wavelength (nm)	Reflectance (%)
377.35	0.0000
377.48	0.0000
377.62	0.0000
377.75	72.6809
377.88	0.0000
378.02	102.0952
378.15	200.0000
378.28	200.0000
378.41	119.7778
378.55	168.3529
378.68	0.0000
378.81	200.0000
378.95	200.0000
379.08	200.0000
379.21	200.0000
379.35	0.0000
379.48	87.0698
379.61	104.0828
379.74	54.9881
379.88	0.0000
380.01	12.1649
380.14	41.2847
380.28	0.0000
380.41	0.0000
380.54	72.3206
380.68	69.7262
380.81	21.7954
380.94	6.9635
381.07	39.3718
381.21	49.6396
381.34	0.0000
381.47	18.0304
381.61	83.6377
381.74	63.7029
381.87	0.0000
382.00	49.7100
382.14	74.8983
382.27	10.3352
382.40	0.0000
382.54	45.2928
382.67	54.3339
382.80	18.6622
382.93	41.3404
383.07	51.1650
383.20	45.2283
383.33	68.6309
383.47	27.2298
383.60	23.8148
383.73	51.6235
383.86	47.4428
384.00	3.5346
384.13	42.4136
384.26	54.7320
384.40	26.6484
384.53	14.0147
384.66	33.3745
384.79	52.5292
384.93	43.7077
385.06	20.9335
385.19	22.2156
385.33	22.9039
385.46	0.0000
385.59	5.5716
385.72	39.3284
385.86	28.7534
385.99	29.6255
386.12	31.9433
386.25	6.9355
386.39	16.3511
386.52	33.9789
386.65	27.0808
386.79	6.2471
386.92	38.6968
387.05	44.6989
387.18	18.7855
387.32	9.9622
387.45	47.6950
387.58	36.9449
387.71	18.6685
387.85	24.0948
387.98	24.0650
388.11	25.2996
388.25	12.8011
388.38	3.8814
388.51	14.5740
388.64	38.1728
388.78	38.0963
388.91	12.3476
389.04	35.5476
389.17	32.1737
389.31	0.0000
389.44	0.0000
389.57	28.3854
389.70	25.3648
389.84	30.6777
389.97	32.6180
390.10	37.6284
390.24	39.4447
390.37	17.8324
390.50	14.3414
390.63	20.2036
390.77	12.7342
390.90	14.3655
391.03	31.6210
391.16	25.1011
391.30	29.1586
391.43	44.5339
391.56	22.9296
391.69	25.5838
391.83	42.0644
391.96	18.2165
392.09	6.5220
392.22	34.2264
392.36	34.1834
392.49	3.3196
392.62	5.9563
392.75	15.8215
392.89	9.7647
393.02	16.7791
393.15	5.7214
393.28	30.3829
393.42	21.2471
393.55	21.0237
393.68	7.7991
393.81	30.6505
393.95	28.6629
394.08	24.2222
394.21	15.9214
394.34	16.9826
394.48	22.0473
394.61	13.9927
394.74	21.1460
394.87	19.1833
395.01	36.6793
395.14	20.2136
395.27	6.1615
395.40	14.7252
395.54	22.0854
395.67	0.0000
395.80	14.4255
395.93	30.9170
396.07	30.2959
396.20	26.2548
396.33	29.8222
396.46	32.7491
396.59	39.6000
396.73	22.1315
396.86	20.2681
396.99	37.6278
397.12	52.4444
397.26	1.7036
397.39	6.5759
397.52	26.4950
397.65	19.9259
397.79	0.0000
397.92	36.8105
398.05	49.3490
398.18	26.0017
398.32	14.3926
398.45	20.6420
398.58	26.4936
398.71	18.2657
398.84	16.5797
398.98	16.8632
399.11	23.2471
399.24	17.5741
399.37	17.5230
399.51	23.7512
399.64	25.5220
399.77	24.1383
399.90	30.5594
400.03	21.9294
400.17	15.7481
400.30	17.0155
400.43	16.2812
400.56	8.2145
400.70	21.0287
400.83	26.2073
400.96	27.2303
401.09	20.6759
401.23	23.4383
401.36	19.5506
401.49	20.9873
401.62	25.7879
401.75	33.5904
401.89	26.2244
402.02	23.3803
402.15	21.6499
402.28	21.2477
402.41	23.2012
402.55	15.1469
402.68	13.0707
402.81	20.1454
402.94	22.6397
403.08	13.7324
403.21	19.3805
403.34	30.2804
403.47	21.4796
403.60	10.6109
403.74	18.8583
403.87	22.8644
404.00	21.9001
404.13	29.6128
404.26	29.5188
404.40	26.6474
404.53	33.1455
404.66	20.9863
404.79	15.6769
404.93	29.6851
405.06	27.8701
405.19	18.4612
405.32	22.3818
405.45	29.6636
405.59	30.7543
405.72	8.6675
405.85	18.9415
405.98	30.1480
406.11	24.8998
406.25	9.4082
406.38	30.7466
406.51	28.3834
406.64	23.3427
406.77	17.9075
406.91	24.5775
407.04	26.1908
407.17	24.8675
407.30	13.6790
407.43	12.3050
407.57	18.3528
407.70	19.4305
407.83	21.7009
407.96	17.5047
408.09	27.3205
408.23	28.0566
408.36	12.6361
408.49	7.2504
408.62	26.4411
408.75	21.1384
408.89	15.9891
409.02	21.2883
409.15	21.1227
409.28	24.3169
409.41	11.9826
409.55	10.6291
409.68	25.6784
409.81	21.6706
409.94	10.8511
410.07	26.4795
410.20	26.2741
410.34	17.5257
410.47	16.9957
410.60	22.9328
410.73	19.7702
410.86	23.0929
411.00	24.0802
411.13	28.0137
411.26	20.9537
411.39	22.0951
411.52	19.1180
411.66	21.6766
411.79	19.8219
411.92	24.9643
412.05	24.8472
412.18	19.5360
412.31	13.4484
412.45	23.4685
412.58	21.6173
412.71	14.1135
412.84	22.6357
412.97	30.0361
413.11	20.6953
413.24	10.0810
413.37	20.3132
413.50	22.5550
413.63	15.0396
413.76	14.9800
413.90	27.3679
414.03	24.6537
414.16	21.3383
414.29	14.6157
414.42	19.9673
414.56	17.7300
414.69	18.0275
414.82	14.8050
414.95	23.2951
415.08	17.0018
415.21	27.4740
415.35	22.2355
415.48	17.3242
415.61	28.4364
415.74	33.5841
415.87	9.6290
416.00	15.7309
416.14	27.2133
416.27	17.6816
416.40	12.0952
416.53	24.9201
416.66	27.7026
416.79	19.9947
416.93	20.5515
417.06	23.0852
417.19	25.2255
417.32	27.4852
417.45	23.2519
417.58	24.8995
417.72	25.6143
417.85	20.0662
417.98	16.3915
418.11	23.3105
418.24	20.7808
418.37	19.9222
418.51	16.6240
418.64	15.1207
418.77	20.6785
418.90	20.7707
419.03	16.2492
419.16	26.9463
419.29	34.1296
419.43	17.9073
419.56	16.5940
419.69	26.0091
419.82	23.3384
419.95	14.9346
420.08	16.8483
420.22	16.5136
420.35	13.6407
420.48	17.3908
420.61	14.4261
420.74	24.9244
420.87	30.5806
421.00	26.3893
421.14	17.4433
421.27	22.3600
421.40	21.5429
421.53	18.6214
421.66	21.0669
421.79	24.5545
421.93	27.2470
422.06	22.1919
422.19	18.3514
422.32	18.0145
422.45	21.9954
422.58	16.2342
422.71	14.2494
422.85	20.5884
422.98	23.1365
423.11	19.5007
423.24	22.0565
423.37	23.7079
423.50	20.5737
423.63	19.9644
423.77	18.2556
423.90	14.1664
424.03	16.0767
424.16	19.7794
424.29	18.9055
424.42	21.9823
424.55	22.3227
424.69	21.5364
424.82	21.3785
424.95	16.8857
425.08	16.7402
425.21	18.8202
425.34	17.6014
425.47	17.1864
425.60	20.9432
425.74	18.9560
425.87	17.8671
426.00	21.6029
426.13	20.0173
426.26	20.5143
426.39	16.7144
426.52	19.2333
426.66	24.8972
426.79	17.3570
426.92	13.3646
427.05	20.8317
427.18	21.3816
427.31	16.6034
427.44	20.8787
427.57	26.0089
427.71	23.8365
427.84	17.5501
427.97	14.3119
428.10	19.3186
428.23	26.1715
428.36	16.6930
428.49	15.1336
428.62	18.3332
428.76	21.3626
428.89	13.9921
429.02	15.9247
429.15	24.8702
429.28	24.8037
429.41	20.4527
429.54	16.1958
429.67	23.3382
429.81	23.0756
429.94	19.0308
430.07	13.0826
430.20	18.9385
430.33	19.8159
430.46	16.4093
430.59	21.1249
430.72	25.3044
430.85	24.4639
430.99	20.1008
431.12	17.6665
431.25	17.4706
431.38	20.1985
431.51	13.6976
431.64	12.9690
431.77	17.1382
431.90	18.3356
432.03	15.0567
432.17	18.1563
432.30	22.7130
432.43	21.6691
432.56	17.8043
432.69	15.1829
432.82	16.3068
432.95	15.3195
433.08	15.4929
433.21	15.8341
433.35	20.8943
433.48	19.9711
433.61	20.5891
433.74	17.9357
433.87	19.5857
434.00	18.0625
434.13	18.1031
434.26	16.1790
434.39	19.8297
434.53	19.6425
434.66	21.2243
434.79	17.8945
434.92	21.1162
435.05	20.5027
435.18	15.5032
435.31	13.0240
435.44	17.9603
435.57	19.4535
435.70	17.1813
435.84	14.7378
435.97	18.2533
436.10	20.1030
436.23	16.9582
436.36	18.4526
436.49	24.6314
436.62	20.1677
436.75	17.0541
436.88	17.7963
437.01	21.0605
437.14	21.6862
437.28	19.4427
437.41	17.7813
437.54	20.0643
437.67	22.3585
437.80	13.8609
437.93	15.5636
438.06	21.7323
438.19	21.6135
438.32	16.1735
438.45	20.1766
438.58	21.6838
438.72	20.2050
438.85	17.9695
438.98	16.4893
439.11	18.5117
439.24	19.5245
439.37	14.7451
439.50	15.3797
439.63	19.2360
439.76	21.4378
439.89	20.4920
440.02	19.5073
440.15	19.8675
440.29	21.6587
440.42	18.8423
440.55	14.5290
440.68	20.3745
440.81	21.4215
440.94	14.1464
441.07	15.4305
441.20	22.1330
441.33	19.7980
441.46	17.1852
441.59	20.9649
441.72	21.7568
441.85	19.8601
441.99	17.2228
442.12	17.4065
442.25	17.1317
442.38	19.4537
442.51	18.6429
442.64	19.5663
442.77	20.1928
442.90	21.0156
443.03	17.9161
443.16	15.8191
443.29	18.2532
443.42	17.2200
443.55	18.4475
443.68	18.9745
443.82	21.8224
443.95	19.5234
444.08	20.5437
444.21	18.5194
444.34	18.1755
444.47	17.6664
444.60	19.2387
444.73	15.7461
444.86	15.2807
444.99	16.2070
445.12	16.9590
445.25	14.7509
445.38	16.0576
445.51	18.3198
445.64	21.8220
445.78	15.9080
445.91	15.7499
446.04	20.7602
446.17	17.6614
446.30	12.4750
446.43	19.5026
446.56	22.5623
446.69	16.7967
446.82	16.0784
446.95	17.7958
447.08	17.7369
447.21	15.2660
447.34	16.4814
447.47	19.2688
447.60	17.1572
447.73	16.3828
447.86	18.0391
447.99	17.9487
448.13	18.4160
448.26	18.6862
448.39	16.6478
448.52	16.5687
448.65	18.0412
448.78	15.7990
448.91	18.5778
449.04	19.1398
449.17	18.5616
449.30	18.8500
449.43	17.4678
449.56	16.5837
449.69	20.4437
449.82	18.2086
449.95	16.2817
450.08	19.4925
450.21	19.9192
450.34	15.6197
450.47	17.9311
450.60	19.7458
450.73	19.8391
450.87	18.1779
451.00	14.0809
451.13	16.3551
451.26	15.8552
451.39	15.1483
451.52	16.1252
451.65	21.9064
451.78	21.8155
451.91	18.8432
452.04	16.3955
452.17	18.2676
452.30	18.4561
452.43	14.6225
452.56	18.8264
452.69	18.6873
452.82	17.1702
452.95	18.4114
453.08	18.1883
453.21	18.5284
453.34	20.4195
453.47	17.3053
453.60	15.7202
453.73	18.2136
453.86	16.3819
453.99	16.8593
454.12	18.4008
454.25	18.5731
454.38	17.4368
454.52	17.3765
454.65	18.1200
454.78	18.0962
454.91	17.8566
455.04	18.7788
455.17	16.0615
455.30	15.6966
455.43	18.8691
455.56	16.7139
455.69	15.2505
455.82	18.7109
455.95	18.2496
456.08	16.0473
456.21	18.5240
456.34	18.6046
456.47	18.2762
456.60	18.5063
456.73	17.2784
456.86	17.8654
456.99	19.6807
457.12	17.6493
457.25	16.5413
457.38	17.4136
457.51	16.5850
457.64	15.7510
457.77	17.8945
457.90	18.9153
458.03	18.5289
458.16	17.6649
458.29	18.2784
458.42	18.2955
458.55	18.7711
458.68	17.5733
458.81	14.7392
458.94	16.6293
459.07	18.4682
459.20	16.7478
459.33	16.4067
459.46	19.3092
459.59	18.9065
459.72	14.8563
459.85	15.3868
459.98	17.8508
460.11	19.9835
460.24	16.1389
460.37	17.3948
460.50	18.5583
460.63	18.6314
460.76	16.1203
460.89	17.3243
461.02	18.6689
461.15	18.6752
461.28	15.8599
461.41	17.9154
461.54	19.1596
461.67	17.2417
461.80	16.6083
461.93	18.1179
462.06	17.7978
462.19	18.1194
462.32	18.1653
462.45	18.4098
462.58	18.6938
462.71	18.8302
462.84	17.6671
462.97	18.0061
463.10	16.5884
463.23	16.7253
463.36	16.9224
463.49	16.1401
463.62	16.3565
463.75	17.7709
463.88	19.4355
464.01	15.6117
464.14	17.1571
464.27	18.2833
464.40	17.5396
464.53	16.0993
464.66	18.1062
464.79	18.4733
464.92	17.6372
465.05	18.0193
465.18	18.0226
465.31	19.3869
465.44	19.1477
465.57	16.5600
465.70	17.0411
465.83	18.7900
465.96	16.6394
466.09	15.4144
466.22	18.6608
466.35	18.7668
466.48	17.4945
466.61	18.1079
466.74	18.2110
466.87	17.4890
467.00	16.4043
467.13	17.2619
467.26	18.9537
467.39	19.5635
467.52	17.8923
467.65	18.9323
467.78	17.6810
467.91	16.4819
468.04	16.2244
468.17	18.5843
468.30	18.5758
468.43	17.7841
468.56	16.7417
468.69	17.8138
468.82	17.3725
468.95	17.3777
469.08	18.3058
469.21	17.7780
469.34	15.9523
469.47	16.5048
469.60	16.2661
469.73	15.4585
469.86	18.1438
469.99	19.6915
470.11	18.1436
470.24	17.8760
470.37	19.3008
470.50	18.8483
470.63	17.8032
470.76	16.7430
470.89	18.3530
471.02	18.8273
471.15	16.4864
471.28	16.5065
471.41	18.8983
471.54	18.9142
471.67	16.8070
471.80	17.9227
471.93	18.8659
472.06	19.4743
472.19	16.4759
472.32	16.9323
472.45	17.7697
472.58	17.4087
472.71	16.7849
472.84	18.8479
472.97	18.3186
473.10	19.2565
473.23	18.4526
473.36	17.5994
473.49	17.1312
473.62	17.5069
473.74	16.8582
473.87	18.1634
474.00	18.0316
474.13	17.3191
474.26	18.3199
474.39	18.0867
474.52	17.3260
474.65	19.0293
474.78	19.8632
474.91	17.8179
475.04	17.7688
475.17	18.4003
475.30	16.6790
475.43	16.7090
475.56	18.2618
475.69	18.8192
475.82	17.6764
475.95	18.5296
476.08	18.1927
476.21	18.1140
476.34	16.5028
476.46	17.7089
476.59	17.7791
476.72	18.8370
476.85	18.0230
476.98	18.5151
477.11	18.8186
477.24	18.3801
477.37	16.7954
477.50	17.8923
477.63	18.7640
477.76	18.1688
477.89	17.8894
478.02	18.6974
478.15	18.4602
478.28	18.3566
478.41	17.6623
478.54	18.1886
478.66	18.3483
478.79	18.5313
478.92	17.8013
479.05	18.4463
479.18	18.2076
479.31	18.1686
479.44	18.1904
479.57	18.3601
479.70	18.9095
479.83	19.5069
479.96	18.2988
480.09	17.7689
480.22	18.2015
480.35	17.9181
480.48	17.9447
480.60	18.6821
480.73	19.4458
480.86	19.5719
480.99	19.3570
481.12	18.2313
481.25	19.0367
481.38	19.0400
481.51	18.4677
481.64	18.5865
481.77	19.3852
481.90	19.1975
482.03	18.4190
482.16	18.7608
482.29	18.5962
482.41	19.0174
482.54	18.8482
482.67	19.0351
482.80	19.7496
482.93	19.2264
483.06	18.6143
483.19	19.0459
483.32	19.7246
483.45	18.7434
483.58	19.0586
483.71	19.1266
483.84	18.8132
483.97	18.7439
484.09	19.1129
484.22	19.7077
484.35	19.9166
484.48	19.8276
484.61	19.6461
484.74	19.9923
484.87	19.5075
485.00	19.9279
485.13	20.0197
485.26	20.3857
485.39	19.5548
485.52	19.6215
485.64	18.9894
485.77	19.6366
485.90	19.3183
486.03	20.2494
486.16	20.5530
486.29	20.7737
486.42	20.5212
486.55	20.4669
486.68	20.2352
486.81	20.5875
486.94	20.5184
487.06	20.2639
487.19	20.6862
487.32	20.8832
487.45	20.6559
487.58	21.3783
487.71	21.3118
487.84	20.7264
487.97	20.7151
488.10	21.0945
488.23	20.4604
488.35	20.9353
488.48	21.5678
488.61	21.8591
488.74	21.7005
488.87	21.4516
489.00	21.4203
489.13	21.6635
489.26	21.3991
489.39	21.2961
489.52	21.9320
489.64	21.8191
489.77	21.7925
489.90	21.9042
490.03	22.1032
490.16	22.2161
490.29	22.1174
490.42	22.2353
490.55	22.3207
490.68	22.8654
490.81	22.3734
490.93	22.7742
491.06	22.7527
491.19	22.4792
491.32	22.5187
491.45	23.1640
491.58	23.3917
491.71	23.8626
491.84	23.8725
491.97	23.5024
492.09	23.8125
492.22	23.4487
492.35	23.2943
492.48	24.0249
492.61	23.9069
492.74	23.5917
492.87	24.1463
493.00	23.9821
493.12	23.6825
493.25	24.1969
493.38	24.8949
493.51	24.7978
493.64	24.9174
493.77	25.3688
493.90	25.0421
494.03	24.4556
494.16	25.0007
494.28	25.7358
494.41	24.9981
494.54	25.0216
494.67	25.9031
494.80	25.5727
494.93	25.1077
495.06	25.9666
495.19	26.5994
495.31	26.4523
495.44	26.3177
495.57	26.5973
495.70	27.1181
495.83	27.2788
495.96	26.8186
496.09	26.7976
496.22	27.3664
496.34	27.1487
496.47	26.7526
496.60	26.9197
496.73	27.7023
496.86	27.1770
496.99	27.5541
497.12	27.8466
497.24	28.1042
497.37	28.2560
497.50	28.7783
497.63	28.0411
497.76	27.9864
497.89	29.1078
498.02	29.1522
498.15	28.8158
498.27	29.1715
498.40	29.6059
498.53	28.8362
498.66	29.2627
498.79	29.5614
498.92	30.0875
499.05	30.4301
499.17	30.2421
499.30	29.9219
499.43	30.6710
499.56	30.5525
499.69	30.5803
499.82	31.4745
499.95	31.9053
500.07	31.6329
500.20	31.2335
500.33	31.6405
500.46	31.9091
500.59	31.8682
500.72	31.8586
500.85	32.6326
500.97	33.0814
501.10	33.0886
501.23	32.8739
501.36	33.1972
501.49	33.6563
501.62	32.9395
501.75	33.3341
501.87	33.6970
502.00	33.5804
502.13	33.6883
502.26	34.1620
502.39	34.2158
502.52	34.6105
502.64	34.6329
502.77	34.6492
502.90	35.1169
503.03	35.2557
503.16	35.0443
503.29	35.6301
503.42	36.0906
503.54	36.2137
503.67	35.8415
503.80	36.8118
503.93	37.1352
504.06	36.7061
504.19	36.7352
504.31	37.1134
504.44	36.7254
504.57	37.0844
504.70	37.5332
504.83	37.8212
504.96	38.2267
505.08	37.9764
505.21	37.7610
505.34	38.2353
505.47	38.3420
505.60	38.5528
505.73	38.6048
505.85	39.1058
505.98	39.4722
506.11	39.7516
506.24	39.7376
506.37	40.1943
506.50	40.2265
506.62	40.1513
506.75	39.8607
506.88	40.2399
507.01	40.6980
507.14	40.8174
507.27	40.9843
507.39	41.4744
507.52	41.2060
507.65	41.7329
507.78	41.5983
507.91	41.3853
508.04	41.4444
508.16	41.8938
508.29	42.0786
508.42	42.6464
508.55	42.5370
508.68	42.9235
508.81	43.2190
508.93	42.9164
509.06	42.7721
509.19	43.4070
509.32	43.2381
509.45	43.3926
509.57	43.6351
509.70	44.0616
509.83	44.1999
509.96	44.4833
510.09	44.5194
510.22	44.8450
510.34	44.2996
510.47	44.4976
510.60	44.6192
510.73	44.7756
510.86	44.9663
510.98	45.4378
511.11	45.4673
511.24	45.8393
511.37	45.9537
511.50	45.9299
511.63	46.2765
511.75	46.3426
511.88	46.2197
512.01	46.1312
512.14	46.2191
512.27	46.2356
512.39	46.3924
512.52	46.7253
512.65	47.0051
512.78	47.0213
512.91	46.9889
513.03	47.0097
513.16	46.9899
513.29	47.0897
513.42	46.9933
513.55	47.5354
513.67	47.9365
513.80	47.9497
513.93	47.8549
514.06	48.2261
514.19	47.8762
514.31	48.0650
514.44	48.1434
514.57	48.0242
514.70	48.3914
514.83	48.7958
514.95	48.5662
515.08	48.7010
515.21	49.1816
515.34	49.2719
515.47	49.2496
515.59	49.4631
515.72	49.2991
515.85	49.5138
515.98	49.3475
516.11	49.2628
516.23	49.4890
516.36	50.1045
516.49	49.9108
516.62	49.7942
516.75	50.4743
516.87	50.3948
517.00	49.8286
517.13	49.9744
517.26	50.7637
517.39	50.3721
517.51	49.9919
517.64	50.6209
517.77	50.6509
517.90	50.2720
518.02	50.6921
518.15	51.0857
518.28	50.8323
518.41	50.8769
518.54	51.0023
518.66	50.9511
518.79	51.2103
518.92	51.3029
519.05	51.1673
519.18	51.2255
519.30	51.1874
519.43	51.1748
519.56	50.9875
519.69	51.4336
519.81	51.6819
519.94	51.6986
520.07	51.6744
520.20	51.8976
520.33	51.9954
520.45	51.8195
520.58	51.6959
520.71	51.8351
520.84	52.2131
520.96	52.2858
521.09	52.0742
521.22	52.0889
521.35	52.3431
521.48	52.3697
521.60	52.1745
521.73	52.0314
521.86	52.3915
521.99	52.3912
522.11	52.1461
522.24	52.2667
522.37	52.2749
522.50	52.4721
522.62	52.3289
522.75	52.6089
522.88	52.5886
523.01	52.8762
523.14	52.3200
523.26	52.6575
523.39	52.2706
523.52	52.3089
523.65	52.5805
523.77	52.9173
523.90	52.6014
524.03	52.9359
524.16	53.0571
524.28	52.9301
524.41	53.1784
524.54	53.3600
524.67	53.1941
524.79	52.8710
524.92	53.2311
525.05	52.9677
525.18	53.1567
525.31	52.7254
525.43	53.3151
525.56	53.5988
525.69	53.5110
525.82	53.1748
525.94	54.0174
526.07	53.9860
526.20	53.2821
526.33	53.4021
526.45	53.6813
526.58	53.6866
526.71	53.4695
526.84	53.9083
526.96	53.9765
527.09	54.0093
527.22	54.2161
527.35	53.9691
527.47	54.0711
527.60	54.0542
527.73	53.8453
527.86	53.5525
527.98	54.0664
528.11	53.7084
528.24	54.0579
528.37	54.2056
528.49	54.0044
528.62	54.2271
528.75	54.4430
528.88	54.1327
529.00	54.3163
529.13	54.7049
529.26	54.0556
529.39	53.8476
529.51	54.3361
529.64	54.2818
529.77	54.0743
529.90	54.4482
530.02	54.9010
530.15	54.6536
530.28	54.5960
530.40	54.6246
530.53	54.7929
530.66	54.4564
530.79	54.4916
530.91	54.4952
531.04	54.6332
531.17	54.5143
531.30	54.6866
531.42	54.2203
531.55	54.4435
531.68	54.5397
531.81	54.5009
531.93	54.6771
532.06	55.0722
532.19	54.8217
532.31	54.6170
532.44	54.8823
532.57	54.7662
532.70	54.6471
532.82	54.5123
532.95	54.5319
533.08	54.5135
533.21	54.6596
533.33	54.9201
533.46	54.7387
533.59	54.9907
533.71	55.0477
533.84	55.0115
533.97	55.0061
534.10	55.3762
534.22	55.2857
534.35	54.9190
534.48	54.9750
534.61	55.0990
534.73	55.0997
534.86	54.9440
534.99	55.2579
535.11	55.2759
535.24	55.3444
535.37	55.6370
535.50	55.6256
535.62	55.4675
535.75	55.4756
535.88	55.2855
536.00	55.0755
536.13	55.3318
536.26	55.6257
536.39	55.3469
536.51	55.4930
536.64	55.6870
536.77	55.6510
536.89	55.4378
537.02	55.6689
537.15	55.5036
537.28	55.5679
537.40	55.4522
537.53	55.5051
537.66	55.7251
537.78	56.0156
537.91	55.9383
538.04	56.4049
538.17	56.2624
538.29	55.8056
538.42	55.6321
538.55	55.8465
538.67	55.6063
538.80	56.0425
538.93	56.1375
539.05	56.0942
539.18	55.8869
539.31	56.2427
539.44	56.0401
539.56	56.3182
539.69	56.6859
539.82	56.9000
539.94	56.2838
540.07	56.4159
540.20	56.4424
540.32	56.2156
540.45	55.8378
540.58	56.4739
540.71	56.6567
540.83	56.7430
540.96	56.5095
541.09	56.5681
541.21	56.6535
541.34	56.6611
541.47	56.4813
541.59	56.3820
541.72	56.6194
541.85	56.7007
541.98	56.6529
542.10	56.3518
542.23	56.8524
542.36	57.0479
542.48	56.9528
542.61	56.8720
542.74	57.3549
542.86	57.3916
542.99	57.1555
543.12	57.1031
543.24	57.0149
543.37	57.0380
543.50	56.9923
543.62	57.2682
543.75	57.2374
543.88	57.2818
544.01	57.1920
544.13	57.3163
544.26	57.2670
544.39	57.2332
544.51	57.2103
544.64	57.4072
544.77	57.2512
544.89	57.3677
545.02	57.1517
545.15	57.0632
545.27	57.0110
545.40	56.9858
545.53	57.0881
545.65	57.5213
545.78	57.8076
545.91	57.7408
546.03	58.0532
546.16	58.0117
546.29	57.9429
546.41	58.2297
546.54	58.2865
546.67	57.9760
546.79	58.1959
546.92	58.1490
547.05	58.0112
547.17	58.0700
547.30	58.4798
547.43	58.1741
547.56	58.3575
547.68	58.2482
547.81	58.3250
547.94	58.3091
548.06	58.1568
548.19	58.1701
548.32	58.4439
548.44	58.4526
548.57	58.2632
548.70	58.5795
548.82	58.7275
548.95	58.8733
549.08	58.7123
549.20	58.9585
549.33	59.1177
549.45	59.2563
549.58	58.9343
549.71	59.4947
549.83	59.4611
549.96	59.3641
550.09	59.0586
550.21	59.3185
550.34	59.1070
550.47	59.4943
550.59	59.4909
550.72	59.2886
550.85	59.4362
550.97	59.7061
551.10	59.2755
551.23	59.4078
551.35	60.0309
551.48	60.1652
551.61	59.8687
551.73	60.0288
551.86	60.2104
551.99	59.8920
552.11	59.6451
552.24	60.0206
552.37	60.2191
552.49	60.0974
552.62	60.3865
552.75	60.6894
552.87	60.6344
553.00	60.7502
553.12	60.8096
553.25	60.6337
553.38	60.5494
553.50	60.8164
553.63	60.6954
553.76	60.8222
553.88	61.1208
554.01	61.0967
554.14	60.7221
554.26	60.9899
554.39	61.0638
554.52	61.1856
554.64	61.2989
554.77	61.5110
554.89	61.4238
555.02	61.5144
555.15	61.4845
555.27	61.3281
555.40	61.5405
555.53	61.8333
555.65	61.6787
555.78	61.4591
555.91	61.9730
556.03	62.1383
556.16	61.8874
556.29	61.9199
556.41	62.4147
556.54	62.4160
556.66	61.9297
556.79	62.0347
556.92	62.5131
557.04	62.3757
557.17	62.2840
557.30	62.7306
557.42	62.7644
557.55	62.6596
557.67	62.7071
557.80	62.7322
557.93	63.0186
558.05	63.1462
558.18	63.0213
558.31	62.9505
558.43	63.0322
558.56	63.0004
558.68	63.0588
558.81	62.8842
558.94	63.2164
559.06	63.3750
559.19	63.4054
559.32	63.4639
559.44	63.9863
559.57	64.0624
559.69	64.0275
559.82	64.0806
559.95	64.5100
560.07	64.5471
560.20	64.4421
560.33	64.7837
560.45	64.6189
560.58	64.5711
560.70	64.6990
560.83	64.8221
560.96	64.5217
561.08	64.9267
561.21	65.0990
561.33	64.8703
561.46	65.0726
561.59	65.3876
561.71	65.4594
561.84	65.2343
561.97	65.7090
562.09	65.8273
562.22	65.7361
562.34	65.7314
562.47	65.9653
562.60	65.9776
562.72	65.9451
562.85	66.2300
562.97	66.4056
563.10	66.5539
563.23	66.5352
563.35	66.6396
563.48	66.5709
563.60	66.7974
563.73	66.9066
563.86	67.1216
563.98	67.3892
564.11	67.4198
564.23	67.3809
564.36	67.2612
564.49	67.3699
564.61	67.4284
564.74	67.5371
564.86	67.5150
564.99	67.5732
565.12	67.6493
565.24	67.6400
565.37	67.7689
565.49	67.9564
565.62	68.4541
565.75	68.0354
565.87	68.0446
566.00	68.4622
566.12	68.3279
566.25	68.2144
566.38	68.6424
566.50	68.8062
566.63	68.8031
566.75	69.1553
566.88	69.1643
567.01	69.3882
567.13	69.6337
567.26	69.4540
567.38	69.5697
567.51	69.6292
567.64	69.6103
567.76	69.6542
567.89	70.0191
568.01	69.9076
568.14	70.0092
568.26	70.2200
568.39	70.1446
568.52	70.1283
568.64	70.3364
568.77	70.4666
568.89	70.6554
569.02	70.9093
569.15	70.9274
569.27	70.8576
569.40	70.9704
569.52	71.0173
569.65	71.1620
569.77	71.4491
569.90	71.3950
570.03	71.5602
570.15	71.6361
570.28	71.8069
570.40	71.7311
570.53	72.0022
570.66	72.0345
570.78	72.1601
570.91	71.9575
571.03	72.0454
571.16	72.2441
571.28	72.2632
571.41	72.3655
571.54	72.4658
571.66	72.5418
571.79	72.6562
571.91	72.6498
572.04	72.4148
572.16	72.6039
572.29	72.7278
572.42	72.8764
572.54	72.9839
572.67	73.3790
572.79	73.5124
572.92	73.6266
573.04	73.7991
573.17	74.1987
573.29	74.0175
573.42	73.9701
573.55	74.0944
573.67	74.1571
573.80	74.1591
573.92	74.2460
574.05	74.2955
574.17	74.3221
574.30	74.3376
574.43	74.1920
574.55	74.4780
574.68	74.6381
574.80	74.8070
574.93	74.8525
575.05	74.9979
575.18	74.8688
575.30	74.7472
575.43	74.7719
575.56	74.8039
575.68	74.9961
575.81	75.0557
575.93	75.2424
576.06	75.4106
576.18	75.5460
576.31	75.1857
576.43	75.3086
576.56	75.4713
576.69	75.5389
576.81	75.5885
576.94	75.9747
577.06	76.2179
577.19	76.2670
577.31	76.0615
577.44	76.1369
577.56	76.0786
577.69	76.1851
577.82	76.5130
577.94	76.5498
578.07	76.3721
578.19	76.7768
578.32	76.8495
578.44	76.6186
578.57	76.9500
578.69	77.1169
578.82	76.9090
578.94	76.8822
579.07	76.9976
579.19	76.9696
579.32	77.2332
579.45	77.5673
579.57	77.6209
579.70	77.8129
579.82	77.7410
579.95	77.7796
580.07	77.5663
580.20	77.5746
580.32	77.5102
580.45	77.6879
580.57	77.5656
580.70	77.6106
580.82	78.0610
580.95	77.9183
581.08	78.0174
581.20	78.0628
581.33	78.1277
581.45	77.5984
581.58	78.0557
581.70	77.9674
581.83	77.9693
581.95	78.1385
582.08	78.4366
582.20	78.3290
582.33	78.5280
582.45	78.5595
582.58	78.5916
582.70	78.6865
582.83	78.6221
582.95	78.5701
583.08	78.6129
583.21	78.6852
583.33	78.9257
583.46	78.9537
583.58	78.8927
583.71	79.0673
583.83	79.0560
583.96	78.8061
584.08	78.8708
584.21	79.1811
584.33	79.4170
584.46	79.3185
584.58	79.2718
584.71	79.4622
584.83	79.5598
584.96	79.2787
585.08	79.2965
585.21	79.4794
585.33	79.3761
585.46	79.4027
585.58	79.6224
585.71	79.6166
585.83	79.7493
585.96	79.7263
586.08	79.5192
586.21	79.6717
586.33	79.8084
586.46	79.7973
586.59	79.8146
586.71	79.8186
586.84	79.8188
586.96	79.9457
587.09	79.5451
587.21	79.6061
587.34	79.8266
587.46	79.5458
587.59	79.5135
587.71	80.0581
587.84	80.2305
587.96	79.9882
588.09	80.1044
588.21	80.0901
588.34	79.9838
588.46	79.9496
588.59	80.2111
588.71	80.3244
588.84	80.0812
588.96	80.0660
589.09	80.2242
589.21	80.2588
589.34	80.1380
589.46	80.3467
589.59	80.5771
589.71	80.5744
589.84	80.4716
589.96	80.4947
590.09	80.5792
590.21	80.3381
590.34	80.3678
590.46	80.3925
590.59	80.3032
590.71	80.5885
590.84	80.5702
590.96	80.4670
591.09	80.6319
591.21	81.0586
591.34	80.6735
591.46	80.7180
591.59	80.6337
591.71	80.7466
591.83	80.5532
591.96	80.8101
592.08	80.9399
592.21	81.1717
592.33	81.2209
592.46	81.2411
592.58	81.1229
592.71	81.1180
592.83	80.8354
592.96	80.7272
593.08	80.8622
593.21	81.0179
593.33	81.0329
593.46	81.0425
593.58	80.8815
593.71	80.9494
593.83	80.6363
593.96	80.5729
594.08	80.8212
594.21	80.8767
594.33	80.8974
594.46	81.3647
594.58	81.4797
594.71	81.4844
594.83	81.1259
594.96	80.9875
595.08	81.0211
595.20	81.1808
595.33	80.7697
595.45	81.2031
595.58	81.4489
595.70	81.3941
595.83	81.2008
595.95	81.6783
596.08	81.8538
596.20	81.6830
596.33	81.7317
596.45	81.9477
596.58	81.8033
596.70	81.6769
596.83	81.5803
596.95	81.6580
597.08	81.5067
597.20	81.5079
597.32	81.4694
597.45	81.5341
597.57	81.4725
597.70	81.4557
597.82	81.6386
597.95	81.7039
598.07	81.7669
598.20	81.8376
598.32	81.7929
598.45	81.5885
598.57	81.6822
598.70	81.7740
598.82	81.4823
598.94	81.4639
599.07	81.5894
599.19	81.7912
599.32	81.4563
599.44	81.5612
599.57	81.7006
599.69	81.8891
599.82	81.3688
599.94	81.5921
600.07	81.8749
600.19	81.9880
600.31	81.5532
600.44	81.6867
600.56	81.7802
600.69	81.6127
600.81	81.5304
600.94	81.7203
601.06	81.7021
601.19	81.8900
601.31	81.6955
601.44	81.6271
601.56	81.6972
601.68	81.8602
601.81	81.4572
601.93	81.8230
602.06	82.0641
602.18	81.9079
602.31	81.7668
602.43	81.9456
602.56	81.7661
602.68	81.4411
602.80	81.7301
602.93	81.7974
603.05	81.7565
603.18	81.8975
603.30	82.1534
603.43	82.0353
603.55	82.1029
603.68	82.1771
603.80	82.0598
603.92	81.9827
604.05	82.1918
604.17	82.1867
604.30	82.0776
604.42	81.9096
604.55	81.9013
604.67	81.7463
604.79	81.7156
604.92	81.9009
605.04	82.1606
605.17	82.2467
605.29	82.1115
605.42	82.2867
605.54	82.2061
605.66	82.1269
605.79	81.9830
605.91	82.1930
606.04	81.9641
606.16	81.9802
606.29	82.0985
606.41	82.3039
606.53	82.2046
606.66	82.4495
606.78	82.5253
606.91	82.4877
607.03	82.5155
607.16	82.4834
607.28	82.2835
607.40	82.2972
607.53	82.3377
607.65	82.3018
607.78	82.1830
607.90	82.4230
608.03	82.3981
608.15	82.5296
608.27	82.5752
608.40	82.9101
608.52	82.6840
608.65	82.9291
608.77	82.7086
608.89	82.4507
609.02	82.5375
609.14	82.6529
609.27	82.5629
609.39	83.0075
609.52	83.2875
609.64	83.2596
609.76	83.1868
609.89	82.9585
610.01	82.7682
610.14	82.8789
610.26	82.7107
610.38	83.0361
610.51	83.3117
610.63	83.1529
610.76	82.9828
610.88	82.8401
611.01	82.6337
611.13	82.6434
611.25	82.7810
611.38	82.9303
611.50	83.1666
611.63	83.3231
611.75	83.2536
611.87	82.9715
612.00	82.8542
612.12	83.1154
612.25	83.0631
612.37	83.0785
612.49	83.1221
612.62	83.2302
612.74	83.0625
612.87	83.2187
612.99	83.1240
613.11	83.1511
613.24	83.1266
613.36	83.1445
613.49	83.0724
613.61	83.0636
613.73	83.3928
613.86	83.4766
613.98	83.4240
614.11	83.2901
614.23	83.3318
614.35	83.2542
614.48	83.1944
614.60	83.1743
614.72	83.3176
614.85	83.4620
614.97	83.5201
615.10	83.4723
615.22	83.4980
615.34	83.6091
615.47	83.5746
615.59	83.4860
615.72	83.7723
615.84	83.5487
615.96	83.5136
616.09	83.7304
616.21	83.7397
616.34	83.5317
616.46	83.8986
616.58	83.8556
616.71	83.6443
616.83	83.6021
616.95	83.7280
617.08	83.8656
617.20	84.0147
617.33	83.9155
617.45	84.0688
617.57	84.0798
617.70	83.8915
617.82	83.7060
617.95	83.9430
618.07	83.9081
618.19	83.7935
618.32	83.9788
618.44	84.2318
618.56	84.3923
618.69	84.2282
618.81	84.3739
618.94	84.2840
619.06	84.1647
619.18	84.1427
619.31	84.2541
619.43	84.1076
619.55	84.4589
619.68	84.6875
619.80	84.3082
619.92	84.3179
620.05	84.6701
620.17	84.6579
620.30	84.4434
620.42	84.7937
620.54	85.0483
620.67	84.9579
620.79	84.5652
620.91	84.6341
621.04	84.6584
621.16	84.8060
621.29	84.7912
621.41	85.0068
621.53	85.2450
621.66	85.1022
621.78	84.6274
621.90	84.7575
622.03	84.8387
622.15	84.6740
622.27	84.8942
622.40	85.0974
622.52	85.2154
622.64	85.2129
622.77	85.0493
622.89	85.0762
623.02	85.2453
623.14	85.0866
623.26	84.9404
623.39	85.2346
623.51	85.4016
623.63	85.2318
623.76	85.1496
623.88	85.3728
624.00	85.3191
624.13	85.2363
624.25	85.3281
624.37	85.3068
624.50	85.5693
624.62	85.8278
624.75	85.6198
624.87	85.8688
624.99	86.0851
625.12	85.4380
625.24	85.2181
625.36	85.4176
625.49	85.2146
625.61	84.9816
625.73	85.5327
625.86	85.6260
625.98	85.7238
626.10	85.7193
626.23	85.8667
626.35	85.8236
626.47	85.8020
626.60	85.7192
626.72	85.7184
626.84	85.9021
626.97	85.9865
627.09	85.7093
627.21	85.5884
627.34	85.9734
627.46	85.9623
627.58	85.6857
627.71	86.3686
627.83	86.4179
627.95	85.8949
628.08	85.9056
628.20	86.2961
628.32	86.0724
628.45	86.1895
628.57	86.4872
628.69	86.3303
628.82	86.3032
628.94	86.2559
629.06	86.2110
629.19	86.4646
629.31	86.5940
629.43	86.5196
629.56	86.3929
629.68	86.6461
629.80	86.6417
629.93	86.7868
630.05	86.8191
630.17	87.2023
630.30	87.0844
630.42	87.1280
630.54	87.2218
630.67	86.9034
630.79	86.7606
630.91	86.7916
631.04	86.7457
631.16	86.7500
631.28	87.2234
631.41	87.0753
631.53	86.9684
631.65	86.7952
631.78	86.6338
631.90	86.7946
632.02	86.7511
632.14	86.9617
632.27	87.2215
632.39	87.0755
632.51	86.9320
632.64	87.2675
632.76	87.3140
632.88	87.3724
633.01	87.6344
633.13	87.2332
633.25	87.3869
633.38	87.4962
633.50	87.4794
633.62	87.6205
633.75	87.8343
633.87	87.6120
633.99	87.6141
634.11	87.4078
634.24	87.3347
634.36	87.4855
634.48	87.2988
634.61	87.3902
634.73	87.6385
634.85	87.7445
634.98	87.9107
635.10	87.8636
635.22	87.7314
635.35	87.9911
635.47	87.9726
635.59	87.8227
635.71	88.0538
635.84	87.9877
635.96	87.8927
636.08	87.8382
636.21	87.8199
636.33	88.1002
636.45	88.4127
636.58	88.0609
636.70	88.2262
636.82	88.6771
636.94	88.4915
637.07	88.2400
637.19	88.5015
637.31	88.7109
637.44	88.4927
637.56	88.6282
637.68	88.8318
637.81	89.2791
637.93	88.9544
638.05	88.5165
638.17	88.5556
638.30	88.5698
638.42	88.1483
638.54	88.2687
638.67	88.6232
638.79	88.6956
638.91	88.7090
639.03	88.8055
639.16	88.8248
639.28	88.9822
639.40	88.6808
639.53	88.6823
639.65	88.7920
639.77	88.7233
639.89	88.6130
640.02	88.9661
640.14	88.7033
640.26	88.6704
640.39	88.8116
640.51	88.6827
640.63	88.4659
640.75	88.7789
640.88	88.7263
641.00	88.2749
641.12	88.6340
641.24	89.0157
641.37	88.5908
641.49	88.6919
641.61	89.1013
641.74	89.1301
641.86	88.7800
641.98	89.1646
642.10	89.2032
642.23	89.2419
642.35	88.9857
642.47	88.9616
642.60	89.0683
642.72	88.9574
642.84	88.8873
642.96	88.9505
643.09	89.1658
643.21	89.1816
643.33	89.1811
643.45	89.0829
643.58	89.2526
643.70	89.1832
643.82	89.1148
643.94	89.1855
644.07	89.3441
644.19	89.1943
644.31	89.3356
644.44	89.3970
644.56	89.4346
644.68	89.5658
644.80	89.7439
644.93	89.6064
645.05	89.6225
645.17	89.6635
645.29	89.6248
645.42	89.3462
645.54	89.3569
645.66	89.4058
645.78	89.2945
645.91	89.0727
646.03	89.4143
646.15	89.5520
646.27	89.5181
646.40	89.4368
646.52	89.7874
646.64	89.8658
646.76	89.6624
646.89	89.5673
647.01	89.5606
647.13	89.7279
647.25	89.6051
647.38	89.5988
647.50	89.9154
647.62	90.2813
647.74	89.8883
647.87	89.6578
647.99	89.8519
648.11	89.8590
648.23	89.5642
648.36	89.7715
648.48	90.0794
648.60	90.2812
648.72	89.7857
648.85	89.9042
648.97	89.9594
649.09	89.9481
649.21	89.8071
649.34	90.1523
649.46	90.2897
649.58	90.4402
649.70	90.2402
649.83	90.1422
649.95	90.0698
650.07	89.9522
650.19	89.6362
650.32	89.6721
650.44	89.7771
650.56	89.8522
650.68	89.9510
650.81	89.9377
650.93	90.1028
651.05	90.0117
651.17	90.0258
651.29	89.9537
651.42	90.2187
651.54	90.3651
651.66	90.3309
651.78	89.8760
651.91	89.9269
652.03	89.9827
652.15	89.8164
652.27	90.0350
652.40	90.5584
652.52	90.7328
652.64	90.1925
652.76	90.1985
652.88	90.2174
653.01	90.4236
653.13	90.1720
653.25	90.4707
653.37	90.5154
653.50	90.6285
653.62	90.1593
653.74	90.1519
653.86	90.4284
653.98	90.4733
654.11	90.3778
654.23	90.3233
654.35	90.4152
654.47	90.4331
654.60	90.7084
654.72	90.4282
654.84	90.7650
654.96	90.8656
655.08	90.7306
655.21	90.2975
655.33	90.4778
655.45	90.4773
655.57	90.2743
655.70	90.0651
655.82	90.1917
655.94	90.5510
656.06	90.4356
656.18	90.4951
656.31	90.7804
656.43	90.8505
656.55	90.5675
656.67	90.5313
656.79	90.7354
656.92	90.8062
657.04	90.4880
657.16	90.5224
657.28	90.5170
657.40	90.5925
657.53	90.4321
657.65	90.4702
657.77	90.6002
657.89	90.9269
658.01	90.6930
658.14	90.7698
658.26	91.1961
658.38	91.1095
658.50	90.6250
658.62	90.7980
658.75	90.7753
658.87	90.9402
658.99	90.9845
659.11	91.0771
659.23	91.1735
659.36	91.2619
659.48	91.0678
659.60	91.1174
659.72	91.3829
659.84	91.3253
659.97	90.8971
660.09	90.6722
660.21	90.8093
660.33	91.0500
660.45	90.9322
660.58	91.1016
660.70	91.4396
660.82	91.1304
660.94	90.6679
661.06	90.5494
661.19	90.7983
661.31	90.5928
661.43	90.4870
661.55	90.5248
661.67	90.8580
661.80	90.8202
661.92	90.8819
662.04	91.0038
662.16	91.3562
662.28	91.2390
662.40	91.1348
662.53	91.2362
662.65	91.1351
662.77	91.1201
662.89	91.2491
663.01	91.3366
663.14	91.1268
663.26	91.4555
663.38	91.2692
663.50	90.8804
663.62	90.8697
663.74	91.0110
663.87	90.7297
663.99	90.3644
664.11	90.6505
664.23	90.8422
664.35	90.6976
664.48	90.9636
664.60	91.5582
664.72	91.6173
664.84	91.3359
664.96	91.5193
665.08	91.3338
665.21	91.4482
665.33	91.2663
665.45	91.1727
665.57	91.0354
665.69	91.0519
665.81	90.8009
665.94	90.6941
666.06	90.7907
666.18	91.0554
666.30	90.9157
666.42	90.7511
666.54	90.9530
666.67	90.7945
666.79	90.5326
666.91	90.7969
667.03	90.9050
667.15	90.9161
667.27	91.2668
667.40	91.0418
667.52	90.9103
667.64	91.1164
667.76	90.9117
667.88	90.6269
668.00	90.8149
668.13	90.8709
668.25	90.7428
668.37	90.7079
668.49	91.0278
668.61	91.1728
668.73	91.0812
668.85	90.9005
668.98	91.2100
669.10	91.0015
669.22	90.6613
669.34	90.8503
669.46	90.8792
669.58	90.6420
669.71	90.8444
669.83	91.0702
669.95	90.9628
670.07	90.9881
670.19	91.2350
670.31	91.1622
670.43	91.0348
670.56	90.9684
670.68	91.1454
670.80	90.6802
670.92	90.5851
671.04	90.7899
671.16	90.8574
671.28	90.5372
671.41	90.8904
671.53	91.1653
671.65	90.7320
671.77	90.4431
671.89	90.6506
672.01	90.8143
672.13	90.4582
672.26	90.9651
672.38	91.0414
672.50	90.8543
672.62	90.4935
672.74	90.6164
672.86	90.4022
672.98	90.5697
673.11	90.4922
673.23	90.7199
673.35	90.7275
673.47	91.0106
673.59	90.8356
673.71	90.5704
673.83	90.4178
673.96	90.5309
674.08	90.1532
674.20	90.2057
674.32	90.6418
674.44	90.6981
674.56	90.3301
674.68	90.2951
674.80	90.4584
674.93	90.4582
675.05	90.2857
675.17	90.3078
675.29	90.4082
675.41	90.2558
675.53	90.2230
675.65	90.1071
675.77	90.2526
675.90	90.4364
676.02	90.1331
676.14	89.8033
676.26	90.0790
676.38	90.0330
676.50	89.9435
676.62	90.4631
676.74	90.6700
676.87	90.3418
676.99	90.2149
677.11	90.0814
677.23	89.8070
677.35	89.9897
677.47	90.1844
677.59	90.0883
677.71	90.0467
677.83	89.8725
677.96	89.7383
678.08	89.8373
678.20	90.0959
678.32	90.2030
678.44	90.0270
678.56	89.9273
678.68	89.9964
678.80	89.9167
678.93	89.7504
679.05	89.8722
679.17	90.0069
679.29	89.9043
679.41	89.8833
679.53	89.8776
679.65	90.0438
679.77	89.9077
679.89	89.5553
680.01	89.7421
680.14	89.8949
680.26	89.6818
680.38	89.5633
680.50	89.7218
680.62	89.4472
680.74	89.3235
680.86	89.4849
680.98	89.2224
681.10	89.3315
681.22	89.5163
681.35	89.6884
681.47	89.2006
681.59	89.5984
681.71	89.6295
681.83	89.2365
681.95	88.7323
682.07	89.1338
682.19	89.1203
682.31	88.7005
682.43	88.9744
682.56	89.2643
682.68	89.2936
682.80	89.1391
682.92	89.4749
683.04	89.5313
683.16	89.3528
683.28	89.3642
683.40	89.3822
683.52	89.3858
683.64	89.3391
683.76	89.5287
683.89	89.3153
684.01	89.3467
684.13	89.2853
684.25	89.0703
684.37	89.0677
684.49	89.0278
684.61	89.0880
684.73	89.2150
684.85	89.0449
684.97	89.1046
685.09	89.5676
685.21	89.2827
685.34	89.2728
685.46	89.5952
685.58	89.3407
685.70	89.2854
685.82	89.5586
685.94	89.4300
686.06	89.3174
686.18	89.4386
686.30	89.1737
686.42	89.2959
686.54	89.0191
686.66	89.1036
686.79	88.8333
686.91	88.8098
687.03	88.8493
687.15	89.2245
687.27	88.9611
687.39	89.2880
687.51	89.3909
687.63	89.1467
687.75	88.7493
687.87	89.1764
687.99	89.0838
688.11	88.8757
688.23	88.9986
688.35	89.3664
688.48	89.2017
688.60	89.1179
688.72	89.3360
688.84	89.4502
688.96	89.5717
689.08	89.1352
689.20	89.2249
689.32	89.3978
689.44	89.4790
689.56	89.2867
689.68	89.7199
689.80	89.7812
689.92	89.6196
690.04	89.4131
690.16	89.3644
690.28	89.6379
690.41	89.5301
690.53	89.2501
690.65	89.0982
690.77	89.1365
690.89	88.8910
691.01	89.0663
691.13	89.2332
691.25	89.4497
691.37	89.7517
691.49	89.3780
691.61	89.2246
691.73	89.5650
691.85	89.7046
691.97	89.2333
692.09	89.5679
692.21	89.5664
692.33	89.6251
692.45	89.4686
692.57	89.4744
692.70	89.7067
692.82	89.8559
692.94	89.5454
693.06	89.6227
693.18	89.9994
693.30	89.6098
693.42	89.5778
693.54	89.7338
693.66	89.9353
693.78	89.7545
693.90	90.0404
694.02	90.2354
694.14	90.1805
694.26	89.7354
694.38	89.6886
694.50	89.7628
694.62	89.7076
694.74	89.6201
694.86	89.7629
694.98	89.6740
695.10	89.6685
695.22	89.5614
695.34	89.7015
695.46	89.7374
695.58	90.0317
695.71	90.0430
695.83	89.7919
695.95	89.9107
696.07	90.0861
696.19	90.1968
696.31	89.9368
696.43	90.2325
696.55	90.2492
696.67	90.2127
696.79	90.1261
696.91	89.9526
697.03	89.9713
697.15	90.0481
697.27	89.7462
697.39	89.7564
697.51	90.1898
697.63	89.9326
697.75	89.8432
697.87	90.2742
697.99	90.2224
698.11	90.1584
698.23	90.3908
698.35	90.2862
698.47	90.3427
698.59	90.1092
698.71	90.2794
698.83	90.4478
698.95	90.5739
699.07	90.3545
699.19	90.6996
699.31	90.5140
699.43	90.5276
699.55	90.5167
699.67	90.6468
699.79	90.6221
699.91	90.6890
700.03	90.5662
700.15	90.4898
700.27	90.6250
700.39	90.5103
700.51	90.5486
700.63	90.4559
700.75	90.6870
700.87	90.5017
700.99	90.8061
701.11	90.8187
701.24	90.7784
701.36	90.6377
701.48	90.8689
701.60	90.4697
701.72	90.5892
701.84	91.0094
701.96	90.9192
702.08	90.6032
702.20	90.8810
702.32	90.9597
702.44	90.9558
702.56	91.1564
702.68	91.0644
702.80	91.0571
702.92	91.0916
703.04	91.0587
703.16	91.2243
703.28	91.4893
703.40	91.4165
703.52	91.1720
703.64	90.9603
703.76	90.7370
703.88	90.7192
704.00	90.5711
704.12	90.6577
704.24	90.6715
704.36	90.8017
704.48	90.7177
704.60	90.9558
704.72	90.7357
704.84	90.7911
704.96	90.8866
705.07	91.1063
705.19	91.0077
705.31	91.4232
705.43	91.3890
705.55	91.2516
705.67	91.4185
705.79	91.6136
705.91	91.3549
706.03	91.3521
706.15	91.4326
706.27	91.1290
706.39	91.1568
706.51	91.3223
706.63	91.4025
706.75	91.1991
706.87	91.3178
706.99	91.5005
707.11	91.5109
707.23	91.5425
707.35	91.5580
707.47	91.4041
707.59	91.2581
707.71	91.1712
707.83	91.2576
707.95	91.0657
708.07	91.1739
708.19	91.4706
708.31	91.5478
708.43	91.4323
708.55	91.7904
708.67	91.7521
708.79	91.3983
708.91	91.2433
709.03	91.3912
709.15	91.2961
709.27	91.3343
709.39	91.2447
709.51	91.3360
709.63	91.5333
709.75	91.5257
709.87	91.6076
709.99	91.8580
710.11	92.1940
710.23	91.6860
710.35	91.7217
710.47	91.7402
710.58	91.5199
710.70	91.2826
710.82	91.6131
710.94	91.6430
711.06	91.7965
711.18	91.7143
711.30	91.6601
711.42	91.6541
711.54	92.0036
711.66	91.7995
711.78	91.7262
711.90	92.0142
712.02	92.3062
712.14	91.7876
712.26	91.5672
712.38	91.9333
712.50	91.8123
712.62	91.5253
712.74	91.3257
712.86	91.6471
712.98	91.5851
713.10	91.2703
713.22	91.1214
713.34	91.4580
713.45	91.4259
713.57	91.3138
713.69	91.4987
713.81	91.7982
713.93	92.2590
714.05	92.0473
714.17	91.9521
714.29	92.2331
714.41	92.0881
714.53	91.8010
714.65	92.2529
714.77	92.1326
714.89	91.9538
715.01	91.9854
715.13	91.9194
715.25	91.8066
715.37	91.9506
715.49	91.8992
715.61	91.6879
715.72	91.8292
715.84	91.8657
715.96	91.8813
716.08	91.8647
716.20	92.1480
716.32	92.1015
716.44	91.9817
716.56	91.8541
716.68	91.9080
716.80	92.0267
716.92	92.0557
717.04	92.1409
717.16	92.6127
717.28	92.5309
717.40	92.3493
717.52	92.3078
717.63	92.2349
717.75	92.1560
717.87	92.3749
717.99	92.1652
718.11	92.0263
718.23	91.9612
718.35	92.1036
718.47	91.9842
718.59	92.2857
718.71	92.3205
718.83	92.6838
718.95	92.4906
719.07	92.5609
719.19	92.4900
719.30	92.5545
719.42	92.2774
719.54	92.2366
719.66	92.3863
719.78	92.3604
719.90	92.4770
720.02	92.3936
720.14	92.4662
720.26	92.3436
720.38	92.6634
720.50	92.4221
720.62	92.7679
720.74	92.6363
720.85	92.2432
720.97	92.1124
721.09	92.1546
721.21	91.9096
721.33	92.0734
721.45	92.3858
721.57	92.6347
721.69	92.5048
721.81	92.3171
721.93	92.4790
722.05	92.7619
722.16	92.4814
722.28	92.5517
722.40	92.4937
722.52	92.6128
722.64	92.3945
722.76	92.2617
722.88	92.6645
723.00	92.9355
723.12	92.9995
723.24	92.7196
723.36	92.5965
723.47	92.3883
723.59	92.3001
723.71	92.1751
723.83	92.5233
723.95	92.6035
724.07	92.3246
724.19	92.6047
724.31	92.7256
724.43	92.8062
724.55	92.3194
724.66	92.7800
724.78	92.8288
724.90	92.5356
725.02	92.3559
725.14	93.3194
725.26	93.2070
725.38	92.9225
725.50	92.8675
725.62	93.1367
725.74	93.2645
725.85	93.4437
725.97	92.3058
726.09	92.6683
726.21	92.8205
726.33	92.6012
726.45	92.4809
726.57	93.8095
726.69	93.4305
726.81	93.0330
726.92	92.7162
727.04	92.6378
727.16	92.5544
727.28	92.6970
727.40	92.3045
727.52	92.1576
727.64	92.1674
727.76	92.3692
727.88	92.3483
727.99	92.7295
728.11	93.0012
728.23	93.0689
728.35	92.8460
728.47	92.7027
728.59	92.8836
728.71	92.8576
728.83	92.5776
728.94	92.3826
729.06	92.5044
729.18	92.4220
729.30	92.2754
729.42	92.3879
729.54	92.7844
729.66	92.7144
729.78	92.6754
729.90	93.1420
730.01	93.2444
730.13	93.2490
730.25	93.2458
730.37	93.3378
730.49	93.0624
730.61	93.0394
730.73	93.0221
730.84	93.0986
730.96	93.3404
731.08	93.6138
731.20	93.1649
731.32	93.2369
731.44	93.3482
731.56	92.8912
731.68	92.6097
731.79	93.2291
731.91	92.9529
732.03	92.9710
732.15	93.2251
732.27	93.1105
732.39	93.2695
732.51	93.6643
732.62	93.3586
732.74	93.3856
732.86	93.6933
732.98	93.4134
733.10	92.8563
733.22	93.3626
733.34	93.2496
733.45	93.1878
733.57	93.2257
733.69	93.5743
733.81	93.4322
733.93	93.4237
734.05	93.3561
734.17	93.4142
734.28	93.6684
734.40	93.6712
734.52	93.4034
734.64	93.5228
734.76	93.8107
734.88	93.5402
735.00	93.1060
735.11	93.6368
735.23	93.8491
735.35	93.3216
735.47	93.3643
735.59	93.7535
735.71	93.4190
735.83	93.0431
735.94	93.2168
736.06	93.1244
736.18	93.1051
736.30	93.5818
736.42	93.8021
736.54	93.3359
736.65	93.5312
736.77	93.6995
736.89	92.8902
737.01	93.1318
737.13	93.8030
737.25	93.6152
737.36	93.4090
737.48	94.0403
737.60	93.6925
737.72	93.2702
737.84	93.4363
737.96	93.3110
738.08	93.4803
738.19	93.4433
738.31	93.8435
738.43	93.7484
738.55	94.1625
738.67	93.9708
738.79	93.9587
738.90	94.0871
739.02	94.2310
739.14	93.8102
739.26	93.5523
739.38	93.8377
739.50	93.7221
739.61	93.6650
739.73	93.7774
739.85	93.7329
739.97	93.9521
740.09	93.9119
740.20	93.7666
740.32	94.1873
740.44	94.4838
740.56	94.1440
740.68	94.1694
740.80	94.1061
740.91	93.7639
741.03	93.9111
741.15	93.7156
741.27	93.6848
741.39	93.6467
741.51	93.7645
741.62	93.6762
741.74	93.9111
741.86	93.9276
741.98	94.1420
742.10	94.0521
742.21	94.1474
742.33	93.7333
742.45	93.7734
742.57	93.6581
742.69	93.7779
742.80	93.6991
742.92	94.1837
743.04	93.8639
743.16	94.2654
743.28	94.3038
743.40	94.4268
743.51	94.3415
743.63	94.6702
743.75	94.3887
743.87	94.2604
743.99	94.0912
744.10	94.1918
744.22	93.9905
744.34	93.8264
744.46	94.0408
744.58	93.7598
744.69	93.6432
744.81	94.1370
744.93	94.0569
745.05	93.6494
745.17	94.0524
745.28	94.1334
745.40	93.9601
745.52	94.2382
745.64	94.7212
745.76	94.9475
745.87	94.7540
745.99	94.7815
746.11	94.8688
746.23	94.8561
746.35	94.0364
746.46	94.0396
746.58	93.9034
746.70	93.8781
746.82	93.9150
746.94	94.6542
747.05	94.9736
747.17	95.2213
747.29	94.7080
747.41	94.8419
747.53	94.7692
747.64	94.4902
747.76	94.0871
747.88	94.6842
748.00	94.6462
748.12	94.7045
748.23	94.7335
748.35	94.8896
748.47	95.0455
748.59	94.9953
748.70	94.9482
748.82	95.1339
748.94	95.1093
749.06	95.0572
749.18	94.7031
749.29	94.6481
749.41	94.7286
749.53	94.7779
749.65	94.9369
749.76	95.3143
749.88	95.1316
750.00	94.8455
750.12	94.8951
750.24	94.7949
750.35	94.3363
750.47	94.5461
750.59	94.4141
750.71	94.7669
750.82	94.7271
750.94	95.0478
751.06	95.0919
751.18	95.4220
751.30	95.0039
751.41	95.0247
751.53	95.1529
751.65	94.9182
751.77	94.7728
751.88	95.2343
752.00	94.8419
752.12	94.7364
752.24	94.9211
752.35	94.9284
752.47	94.4017
752.59	94.9766
752.71	94.6556
752.83	94.9127
752.94	94.9647
753.06	95.1611
753.18	94.9561
753.30	95.3072
753.41	94.9979
753.53	95.0254
753.65	95.2797
753.77	95.2767
753.88	95.1319
754.00	95.0435
754.12	95.3518
754.24	95.7099
754.35	95.5207
754.47	95.5845
754.59	95.9276
754.71	95.9177
754.82	95.2657
754.94	95.5503
755.06	95.6547
755.18	95.7023
755.29	95.4438
755.41	95.7040
755.53	95.6836
755.65	95.6596
755.76	95.0949
755.88	95.0637
756.00	95.2334
756.12	95.1336
756.23	94.6832
756.35	95.1000
756.47	95.5440
756.59	95.2942
756.70	95.5245
756.82	95.8442
756.94	95.7659
757.06	95.5465
757.17	95.7925
757.29	95.4381
757.41	95.6034
757.53	95.6334
757.64	95.4158
757.76	95.1501
757.88	95.3300
758.00	95.6062
758.11	95.5741
758.23	95.7497
758.35	95.6592
758.47	95.7317
758.58	95.4918
758.70	95.7961
758.82	95.6508
758.94	96.0195
759.05	96.0384
759.17	95.6176
759.29	95.3548
759.40	95.4381
759.52	94.9705
759.64	94.6291
759.76	95.0035
759.87	95.1359
759.99	95.4932
760.11	95.8029
760.23	96.0308
760.34	96.1235
760.46	96.1129
760.58	95.6738
760.70	95.5976
760.81	95.6632
760.93	95.7506
761.05	96.0859
761.16	96.3911
761.28	96.7046
761.40	96.3811
761.52	96.1921
761.63	95.9302
761.75	95.9930
761.87	95.8109
761.98	96.2702
762.10	96.2591
762.22	96.5261
762.34	96.1992
762.45	95.5278
762.57	95.5742
762.69	95.5570
762.81	95.6142
762.92	95.6766
763.04	95.9055
763.16	95.7979
763.27	95.7880
763.39	95.1733
763.51	95.2373
763.63	95.8643
763.74	95.8305
763.86	96.0136
763.98	96.0376
764.09	96.2054
764.21	95.9122
764.33	95.8808
764.44	95.6778
764.56	95.8527
764.68	95.8809
764.80	95.4215
764.91	95.5063
765.03	95.7242
765.15	95.9814
765.26	95.5804
765.38	96.0802
765.50	95.9725
765.62	95.7941
765.73	95.7778
765.85	95.8873
765.97	96.0552
766.08	96.2576
766.20	96.3266
766.32	95.9439
766.43	96.0615
766.55	95.9050
766.67	95.8158
766.79	95.9547
766.90	96.2817
767.02	96.5205
767.14	95.7937
767.25	95.7239
767.37	95.6910
767.49	95.2659
767.60	94.8328
767.72	95.5645
767.84	95.7483
767.95	95.5443
768.07	95.7525
768.19	96.0103
768.31	96.0972
768.42	95.9978
768.54	95.8068
768.66	95.7765
768.77	95.8965
768.89	95.7666
769.01	95.4571
769.12	95.7477
769.24	95.9623
769.36	95.9540
769.47	95.6579
769.59	95.8023
769.71	95.7726
769.82	95.8457
769.94	95.4031
770.06	95.7754
770.17	95.7150
770.29	95.4376
770.41	95.4418
770.53	95.7537
770.64	95.5968
770.76	95.6504
770.88	96.4626
770.99	96.4565
771.11	96.6106
771.23	96.4307
771.34	96.3004
771.46	95.8957
771.58	95.7879
771.69	95.5298
771.81	96.1861
771.93	96.1202
772.04	96.1797
772.16	96.0837
772.28	96.2897
772.39	95.7727
772.51	96.2852
772.63	96.3188
772.74	95.7624
772.86	95.9290
772.98	96.2207
773.09	95.9801
773.21	95.8175
773.33	96.6473
773.44	96.2204
773.56	95.8242
773.68	96.0683
773.79	96.2044
773.91	96.1549
774.03	96.0634
774.14	96.5336
774.26	96.7517
774.38	96.5632
774.49	96.2564
774.61	96.5320
774.73	96.3724
774.84	95.8785
774.96	96.1245
775.08	96.2431
775.19	96.1604
775.31	96.2386
775.43	96.5304
775.54	95.9530
775.66	96.2767
775.77	96.0746
775.89	95.7570
776.01	95.5728
776.12	96.3920
776.24	96.3486
776.36	96.3435
776.47	96.3253
776.59	96.5954
776.71	96.4757
776.82	96.3052
776.94	96.3468
777.06	96.8557
777.17	96.9283
777.29	96.5747
777.41	96.5949
777.52	96.5785
777.64	96.8107
777.75	96.7899
777.87	96.7079
777.99	96.6423
778.10	96.9987
778.22	96.7114
778.34	96.3639
778.45	96.6353
778.57	96.7631
778.69	96.2362
778.80	96.1920
778.92	96.4885
779.04	96.4095
779.15	96.1491
779.27	96.3049
779.38	96.4035
779.50	96.2104
779.62	96.6430
779.73	96.2908
779.85	96.8043
779.97	97.0487
780.08	96.8796
780.20	96.4138
780.31	97.0336
780.43	97.0168
780.55	96.3615
780.66	96.0044
780.78	96.4454
780.90	96.6329
781.01	96.5480
781.13	96.3608
781.25	97.0971
781.36	96.8523
781.48	96.1377
781.59	95.8261
781.71	96.5423
781.83	96.7850
781.94	96.2835
782.06	96.8004
782.18	97.7254
782.29	97.2966
782.41	96.7736
782.52	97.3062
782.64	97.5171
782.76	97.5008
782.87	97.1896
782.99	96.6210
783.10	96.8272
783.22	96.5800
783.34	95.7501
783.45	96.2271
783.57	96.5595
783.69	95.8092
783.80	95.6085
783.92	95.8587
784.03	95.7469
784.15	96.1167
784.27	96.5374
784.38	96.6296
784.50	96.7804
784.61	97.0471
784.73	97.2505
784.85	96.9725
784.96	96.9784
785.08	96.8800
785.19	97.0856
785.31	97.0318
785.43	96.9556
785.54	96.9152
785.66	96.5470
785.77	96.6319
785.89	96.4319
786.01	96.7410
786.12	96.4893
786.24	96.6895
786.35	96.3164
786.47	96.5880
786.59	96.5054
786.70	96.9831
786.82	96.9625
786.93	96.9253
787.05	96.7963
787.17	97.1533
787.28	96.8972
787.40	96.8715
787.51	97.2537
787.63	96.9502
787.75	96.4573
787.86	96.7101
787.98	96.9184
788.09	96.3420
788.21	96.5014
788.33	97.2933
788.44	97.0763
788.56	97.3400
788.67	97.4809
788.79	97.7029
788.91	97.5242
789.02	97.1363
789.14	96.6485
789.25	96.8986
789.37	96.7095
789.48	96.6670
789.60	96.9294
789.72	96.6789
789.83	96.8884
789.95	97.1888
790.06	96.4982
790.18	96.4865
790.30	96.7266
790.41	96.3170
790.53	96.1686
790.64	96.4644
790.76	96.6572
790.87	96.5597
790.99	96.5916
791.11	96.5647
791.22	96.4059
791.34	96.4188
791.45	96.7448
791.57	96.9206
791.68	96.3206
791.80	96.4425
791.92	96.6303
792.03	96.5992
792.15	96.4740
792.26	96.7289
792.38	96.7550
792.49	96.7791
792.61	96.9963
792.73	97.6029
792.84	99.5599
792.96	94.8423
793.07	95.3458
793.19	96.2666
793.30	96.4278
793.42	95.2871
793.54	99.1352
793.65	98.7564
793.77	98.0212
793.88	97.1481
794.00	96.6724
794.11	97.3080
794.23	97.3919
794.34	97.5297
794.46	96.7205
794.58	96.2249
794.69	97.2560
794.81	97.5384
794.92	96.1174
795.04	96.6383
795.15	96.9586
795.27	96.7143
795.39	96.3426
795.50	97.3906
795.62	97.8201
795.73	97.8324
795.85	96.9286
795.96	97.0272
796.08	96.9705
796.19	97.1504
796.31	97.2897
796.42	97.4769
796.54	97.5586
796.66	97.9791
796.77	97.0863
796.89	97.4551
797.00	97.9113
797.12	97.2477
797.23	96.5322
797.35	96.9774
797.46	96.4711
797.58	96.6018
797.69	96.9265
797.81	97.2795
797.93	97.5113
798.04	97.1025
798.16	97.0559
798.27	97.0869
798.39	97.1114
798.50	97.2067
798.62	96.9441
798.73	96.8620
798.85	96.8111
798.96	96.2561
799.08	96.0459
799.19	96.9461
799.31	97.3810
799.43	97.3318
799.54	97.1583
799.66	97.3578
799.77	97.9002
799.89	97.4280
800.00	96.9088
800.12	96.8973
800.23	97.2358
800.35	96.8621
800.46	96.3753
800.58	96.7556
800.69	97.3959
800.81	96.5583
800.92	96.6347
801.04	97.4578
801.16	97.7430
801.27	97.6192
801.39	98.0719
801.50	97.3346
801.62	96.7370
801.73	97.1487
801.85	97.0158
801.96	96.5577
802.08	97.5130
802.19	97.8628
802.31	96.7913
802.42	96.7265
802.54	97.5660
802.65	96.7640
802.77	97.4162
802.88	97.3730
803.00	97.9329
803.11	97.8076
803.23	97.9414
803.34	97.5199
803.46	97.6786
803.57	97.7610
803.69	97.1555
803.80	97.5009
803.92	97.2683
804.03	97.4457
804.15	96.9034
804.26	97.6047
804.38	97.1876
804.50	96.8569
804.61	96.9586
804.73	97.7560
804.84	97.4290
804.96	97.7510
805.07	97.9290
805.19	97.7858
805.30	97.3391
805.42	97.3924
805.53	97.6082
805.65	98.0668
805.76	98.2953
805.88	98.0123
805.99	98.1369
806.11	97.7752
806.22	97.4038
806.34	97.4985
806.45	97.1729
806.57	97.3246
806.68	97.1309
806.80	96.9091
806.91	97.2667
807.03	97.9252
807.14	97.7692
807.26	97.5609
807.37	98.1755
807.49	97.4244
807.60	96.6410
807.72	96.7381
807.83	97.3813
807.95	96.9652
808.06	96.8832
808.17	97.6228
808.29	97.1563
808.40	96.5849
808.52	96.2238
808.63	96.7872
808.75	96.2930
808.86	96.4682
808.98	96.5405
809.09	97.0139
809.21	96.6481
809.32	97.6143
809.44	97.4634
809.55	98.1501
809.67	97.6981
809.78	97.2944
809.90	96.9128
810.01	96.2466
810.13	96.0958
810.24	96.7370
810.36	97.3651
810.47	96.7339
810.59	96.8288
810.70	96.9249
810.82	96.8717
810.93	97.0068
811.05	97.5784
811.16	97.9302
811.27	96.6782
811.39	96.9096
811.50	97.7415
811.62	97.2411
811.73	97.3812
811.85	98.1479
811.96	97.8141
812.08	97.0876
812.19	97.5362
812.31	98.2345
812.42	98.2686
812.54	97.7343
812.65	97.4666
812.77	97.1713
812.88	96.5608
813.00	97.1932
813.11	97.7961
813.22	98.2454
813.34	97.5988
813.45	96.9499
813.57	97.0069
813.68	97.7522
813.80	97.8919
813.91	97.4182
814.03	98.5562
814.14	97.8191
814.26	96.6222
814.37	96.5613
814.49	97.8380
814.60	97.0705
814.71	97.6212
814.83	97.8479
814.94	97.0320
815.06	97.5883
815.17	98.8549
815.29	97.1652
815.40	97.5114
815.52	98.5920
815.63	97.7761
815.75	97.9530
815.86	99.4231
815.97	98.8481
816.09	98.0349
816.20	99.8280
816.32	98.7993
816.43	99.1141
816.55	97.9949
816.66	98.6215
816.78	97.2503
816.89	97.8905
817.00	98.1207
817.12	98.5976
817.23	98.1752
817.35	99.2400
817.46	97.2524
817.58	97.1488
817.69	98.1732
817.81	98.0277
817.92	96.6875
818.03	98.9042
818.15	98.8968
818.26	98.6213
818.38	104.4380
818.49	112.4019
818.61	94.4068
818.72	97.7654
818.83	106.7249
818.95	102.5900
819.06	93.5593
819.18	112.4135
819.29	108.3035
819.41	98.9538
819.52	97.4394
819.64	99.5246
819.75	99.5485
819.86	98.1098
819.98	98.4477
820.09	99.2709
820.21	96.8948
820.32	94.7544
820.44	97.7346
820.55	97.5639
820.66	96.8781
820.78	97.5676
820.89	99.8804
821.01	98.3242
821.12	100.4778
821.23	98.1674
821.35	98.2351
821.46	99.6631
821.58	100.8881
821.69	97.2672
821.81	98.5138
821.92	97.3433
822.03	97.6182
822.15	97.4018
822.26	97.7736
822.38	98.1966
822.49	99.4809
822.61	96.8129
822.72	96.5293
822.83	100.0123
822.95	99.3708
823.06	97.8391
823.18	98.5106
823.29	99.5630
823.40	102.0070
823.52	98.1182
823.63	100.6811
823.75	105.4857
823.86	101.4409
823.97	99.8444
824.09	105.1547
824.20	106.0659
824.32	101.3990
824.43	99.3324
824.55	99.3397
824.66	100.9069
824.77	96.6713
824.89	97.9951
825.00	101.3857
825.12	100.7200
825.23	101.9000
825.34	100.1789
825.46	99.1648
825.57	105.4568
825.69	102.9873
825.80	102.7250
825.91	104.1508
826.03	106.9805
826.14	100.1398
826.26	99.8800
826.37	95.9876
826.48	104.2320
826.60	99.7721
826.71	100.1822
826.83	92.5739
826.94	90.3990
827.05	89.5181
827.17	93.4880
827.28	99.2115
827.39	105.8301
827.51	110.1877
827.62	108.6568
827.74	115.9205
827.85	115.9876
827.96	101.8673
828.08	115.6775
828.19	150.0510
828.31	130.6584
828.42	114.2970
828.53	126.2582
828.65	31.4834
828.76	0.0000
828.87	0.0000
828.99	0.0000
