Wavelength (nm)	Reflectance (%)
377.35	0.0000
377.48	0.0000
377.62	0.0000
377.75	20.3404
377.88	0.0000
378.02	10.9524
378.15	200.0000
378.28	171.5000
378.41	0.0000
378.55	200.0000
378.68	182.0000
378.81	200.0000
378.95	200.0000
379.08	200.0000
379.21	200.0000
379.35	146.5806
379.48	134.6512
379.61	127.4207
379.74	68.7905
379.88	0.0000
380.01	21.9691
380.14	52.6834
380.28	5.8197
380.41	0.0000
380.54	82.2285
380.68	78.4402
380.81	29.4983
380.94	14.3987
381.07	46.6218
381.21	54.8453
381.34	0.0000
381.47	22.1369
381.61	86.5151
381.74	64.9638
381.87	0.0000
382.00	51.3383
382.14	75.7856
382.27	11.3738
382.40	0.0000
382.54	45.9072
382.67	54.1783
382.80	17.8037
382.93	38.0561
383.07	46.4175
383.20	39.1244
383.33	60.7950
383.47	19.0683
383.60	17.4444
383.73	45.8827
383.86	43.7612
384.00	2.7049
384.13	42.1728
384.26	53.2986
384.40	25.1507
384.53	10.9662
384.66	30.1094
384.79	50.5661
384.93	43.0907
385.06	21.3406
385.19	24.4151
385.33	26.1750
385.46	1.0682
385.59	10.9504
385.72	45.9257
385.86	34.9464
385.99	34.0361
386.12	34.3739
386.25	6.3429
386.39	14.1809
386.52	32.6174
386.65	27.3816
386.79	8.8506
386.92	44.2896
387.05	51.0078
387.18	23.0272
387.32	12.2154
387.45	48.5748
387.58	36.2319
387.71	17.7247
387.85	24.6974
387.98	26.3252
388.11	28.0959
388.25	16.1720
388.38	8.6289
388.51	19.5439
388.64	42.4764
388.78	42.9251
388.91	16.7594
389.04	38.2621
389.17	33.3895
389.31	0.0000
389.44	0.0000
389.57	24.5366
389.70	21.3837
389.84	27.2066
389.97	30.5054
390.10	37.2166
390.24	39.8824
390.37	18.2457
390.50	13.6541
390.63	18.0860
390.77	8.7748
390.90	9.2304
391.03	25.9087
391.16	19.0067
391.30	23.4758
391.43	40.6459
391.56	19.8593
391.69	23.4194
391.83	41.6266
391.96	19.3483
392.09	8.5199
392.22	38.1258
392.36	40.9148
392.49	12.5244
392.62	16.4105
392.75	26.9798
392.89	21.2157
393.02	26.3037
393.15	13.2632
393.28	36.9368
393.42	27.8958
393.55	27.8142
393.68	15.6246
393.81	40.2280
393.95	39.0697
394.08	33.7815
394.21	24.1721
394.34	23.7360
394.48	26.2255
394.61	16.4299
394.74	22.8762
394.87	20.8471
395.01	37.3746
395.14	20.2998
395.27	5.4381
395.40	13.0575
395.54	19.4756
395.67	0.0000
395.80	13.0422
395.93	31.1552
396.07	32.4456
396.20	29.5323
396.33	33.6581
396.46	36.6357
396.59	42.0104
396.73	22.8478
396.86	20.2363
396.99	36.8870
397.12	51.8258
397.26	1.8643
397.39	7.5483
397.52	27.5987
397.65	21.4007
397.79	0.0000
397.92	38.4613
398.05	50.7181
398.18	27.5835
398.32	15.9329
398.45	22.3866
398.58	27.9936
398.71	19.9283
398.84	18.4638
398.98	18.8174
399.11	24.7250
399.24	18.9344
399.37	18.5707
399.51	23.8384
399.64	24.8293
399.77	22.7781
399.90	28.3000
400.03	19.5736
400.17	13.9909
400.30	16.1118
400.43	16.6621
400.56	9.6375
400.70	22.9899
400.83	27.8722
400.96	28.2199
401.09	20.9074
401.23	23.9383
401.36	19.7483
401.49	20.8352
401.62	25.4256
401.75	33.0311
401.89	25.1591
402.02	22.2563
402.15	21.7339
402.28	22.7297
402.41	26.4456
402.55	19.5944
402.68	18.8936
402.81	26.4829
402.94	28.9282
403.08	19.4405
403.21	24.5030
403.34	34.6886
403.47	24.8670
403.60	13.2497
403.74	20.3005
403.87	23.1516
404.00	20.9727
404.13	27.9065
404.26	26.9866
404.40	24.1704
404.53	30.7580
404.66	19.0501
404.79	14.1077
404.93	28.7028
405.06	27.0456
405.19	17.5890
405.32	21.2438
405.45	28.1515
405.59	28.6757
405.72	6.0858
405.85	15.9555
405.98	26.0699
406.11	19.8368
406.25	3.7244
406.38	24.9124
406.51	22.7030
406.64	19.0339
406.77	15.3446
406.91	23.3868
407.04	25.9505
407.17	25.4733
407.30	14.3370
407.43	12.4714
407.57	18.1418
407.70	18.9228
407.83	20.8037
407.96	16.5822
408.09	26.8792
408.23	28.1982
408.36	13.0700
408.49	8.0763
408.62	27.2126
408.75	21.6987
408.89	16.3154
409.02	21.5872
409.15	21.0431
409.28	24.6514
409.41	12.8118
409.55	11.9696
409.68	27.8798
409.81	25.0308
409.94	14.3611
410.07	29.7476
410.20	28.8405
410.34	18.7585
410.47	16.9635
410.60	22.2276
410.73	18.4907
410.86	21.6505
411.00	22.6426
411.13	26.5071
411.26	19.2921
411.39	20.5748
411.52	17.9582
411.66	21.0645
411.79	19.7115
411.92	25.5440
412.05	25.7582
412.18	20.4523
412.31	14.1115
412.45	23.9705
412.58	21.4485
412.71	13.7669
412.84	22.1145
412.97	29.2279
413.11	19.4094
413.24	8.7885
413.37	18.6494
413.50	20.5678
413.63	12.9188
413.76	12.6116
413.90	24.6878
414.03	21.8717
414.16	18.9450
414.29	12.6167
414.42	18.8436
414.56	17.1089
414.69	17.7350
414.82	14.2066
414.95	22.4833
415.08	15.4060
415.21	25.4862
415.35	19.8216
415.48	14.7594
415.61	25.8341
415.74	31.4973
415.87	7.9474
416.00	14.7800
416.14	27.3336
416.27	18.6895
416.40	13.6355
416.53	26.8816
416.66	29.5250
416.79	20.7257
416.93	19.9722
417.06	21.4785
417.19	22.4038
417.32	23.7632
417.45	19.2758
417.58	21.4602
417.72	22.6969
417.85	18.1498
417.98	15.3373
418.11	23.3783
418.24	21.3664
418.37	20.9011
418.51	17.6038
418.64	16.1799
418.77	21.1193
418.90	20.7410
419.03	15.5921
419.16	25.6714
419.29	32.1555
419.43	15.5404
419.56	13.9887
419.69	23.7215
419.82	21.6170
419.95	13.9218
420.08	16.9763
420.22	17.4163
420.35	14.6884
420.48	18.1848
420.61	14.8946
420.74	24.4251
420.87	29.3711
421.00	24.3550
421.14	15.1334
421.27	19.6049
421.40	18.9342
421.53	16.1644
421.66	19.3714
421.79	23.6591
421.93	27.3750
422.06	22.8335
422.19	19.4763
422.32	19.4249
422.45	23.1845
422.58	17.0037
422.71	15.0218
422.85	21.2754
422.98	23.6426
423.11	19.9336
423.24	22.2624
423.37	23.5576
423.50	20.2467
423.63	19.4005
423.77	17.6709
423.90	13.6330
424.03	15.6420
424.16	19.3001
424.29	18.4517
424.42	21.7276
424.55	22.3611
424.69	21.8261
424.82	21.9351
424.95	17.6243
425.08	17.4483
425.21	19.6179
425.34	18.4265
425.47	18.1627
425.60	22.3151
425.74	20.4766
425.87	19.3727
426.00	23.2838
426.13	21.5899
426.26	21.5826
426.39	17.4524
426.52	19.5596
426.66	24.5569
426.79	16.6068
426.92	12.3859
427.05	19.8744
427.18	20.5134
427.31	16.1575
427.44	21.1003
427.57	26.9707
427.71	25.2021
427.84	19.3596
427.97	16.0792
428.10	20.4282
428.23	26.6022
428.36	16.8755
428.49	14.9807
428.62	18.0093
428.76	21.3297
428.89	14.0610
429.02	15.6093
429.15	24.2842
429.28	24.2105
429.41	19.6986
429.54	15.6191
429.67	23.0927
429.81	22.8469
429.94	18.7246
430.07	12.6618
430.20	18.0159
430.33	18.5692
430.46	15.2086
430.59	19.7188
430.72	23.7775
430.85	22.9960
430.99	18.7072
431.12	16.2186
431.25	16.3822
431.38	19.6857
431.51	13.7624
431.64	13.3131
431.77	17.7443
431.90	18.8717
432.03	15.2754
432.17	18.0852
432.30	22.5862
432.43	21.3794
432.56	17.3557
432.69	14.7584
432.82	15.8863
432.95	14.9184
433.08	15.3450
433.21	15.9187
433.35	20.8717
433.48	19.8747
433.61	20.3080
433.74	17.6107
433.87	19.4332
434.00	18.4054
434.13	18.9778
434.26	17.6198
434.39	21.5489
434.53	21.3971
434.66	23.0111
434.79	19.5493
434.92	22.9227
435.05	22.4223
435.18	17.6477
435.31	15.3076
435.44	20.1882
435.57	21.2910
435.70	18.6134
435.84	15.6273
435.97	18.6205
436.10	20.3644
436.23	17.2354
436.36	18.9222
436.49	25.4197
436.62	21.0647
436.75	17.9527
436.88	18.4190
437.01	21.4237
437.14	21.7324
437.28	19.5336
437.41	17.9077
437.54	20.4499
437.67	22.6808
437.80	14.1561
437.93	15.5523
438.06	21.4110
438.19	21.1227
438.32	15.8584
438.45	20.0483
438.58	21.9290
438.72	20.8943
438.85	18.8768
438.98	17.3233
439.11	18.9986
439.24	19.5927
439.37	14.1602
439.50	14.2309
439.63	17.8999
439.76	20.3969
439.89	19.8238
440.02	19.1691
440.15	19.8784
440.29	21.9137
440.42	19.0946
440.55	14.6559
440.68	20.5577
440.81	21.5801
440.94	14.0680
441.07	15.1596
441.20	21.7194
441.33	19.3193
441.46	16.6263
441.59	20.2955
441.72	20.7374
441.85	18.5597
441.99	15.6470
442.12	15.5587
442.25	15.3528
442.38	18.1286
442.51	17.6544
442.64	18.9735
442.77	20.2108
442.90	21.2411
443.03	18.1523
443.16	16.2020
443.29	18.4012
443.42	16.9488
443.55	18.1848
443.68	18.7071
443.82	21.4447
443.95	19.4158
444.08	20.7946
444.21	19.0411
444.34	19.1975
444.47	19.1359
444.60	21.1640
444.73	18.0167
444.86	17.6643
444.99	18.3068
445.12	18.8762
445.25	16.2407
445.38	17.3051
445.51	19.3556
445.64	22.8263
445.78	16.8433
445.91	16.5557
446.04	21.2433
446.17	17.8854
446.30	12.3307
446.43	19.0150
446.56	22.0271
446.69	16.2441
446.82	15.5858
446.95	17.5950
447.08	17.7148
447.21	15.3037
447.34	16.7566
447.47	19.6085
447.60	17.3905
447.73	16.5391
447.86	18.0716
447.99	17.8418
448.13	18.3280
448.26	18.6290
448.39	16.8054
448.52	17.0216
448.65	18.4123
448.78	16.0222
448.91	18.7250
449.04	19.2857
449.17	18.6931
449.30	19.2723
449.43	18.1718
449.56	17.5137
449.69	21.2728
449.82	18.9476
449.95	16.8547
450.08	20.0109
450.21	20.4551
450.34	16.4064
450.47	18.9338
450.60	21.0058
450.73	21.2626
450.87	19.5227
451.00	15.1258
451.13	16.9854
451.26	16.0099
451.39	14.8820
451.52	15.7263
451.65	21.5223
451.78	21.6368
451.91	18.9271
452.04	16.5728
452.17	18.3205
452.30	18.3975
452.43	14.3862
452.56	18.5381
452.69	18.4995
452.82	17.2761
452.95	18.7124
453.08	18.5443
453.21	18.8018
453.34	20.7171
453.47	17.4042
453.60	15.7293
453.73	18.3475
453.86	16.6151
453.99	17.0778
454.12	18.8135
454.25	19.1521
454.38	17.9697
454.52	17.9567
454.65	18.7690
454.78	18.7045
454.91	18.3307
455.04	19.3479
455.17	16.5654
455.30	16.1128
455.43	19.3202
455.56	17.4009
455.69	16.0632
455.82	19.8864
455.95	19.8401
456.08	17.8502
456.21	20.2700
456.34	20.2600
456.47	19.5432
456.60	19.1084
456.73	17.3827
456.86	17.6184
456.99	19.1414
457.12	17.0849
457.25	16.3093
457.38	17.3243
457.51	16.5834
457.64	15.8273
457.77	17.9620
457.90	18.9041
458.03	18.6390
458.16	17.9666
458.29	18.7431
458.42	18.9623
458.55	19.4487
458.68	18.2161
458.81	15.2942
458.94	17.1844
459.07	18.9873
459.20	17.4354
459.33	17.1905
459.46	20.2380
459.59	19.8174
459.72	15.7068
459.85	16.0638
459.98	18.4058
460.11	20.2596
460.24	16.2688
460.37	17.4185
460.50	18.5954
460.63	18.7494
460.76	16.4621
460.89	17.8767
461.02	19.3885
461.15	19.3448
461.28	16.3724
461.41	18.2630
461.54	19.3230
461.67	17.2046
461.80	16.5497
461.93	18.0002
462.06	17.6191
462.19	17.8599
462.32	17.8983
462.45	18.1268
462.58	18.6040
462.71	18.8288
462.84	17.8365
462.97	18.3900
463.10	17.0368
463.23	17.0269
463.36	17.2072
463.49	16.2757
463.62	16.3063
463.75	17.6432
463.88	19.3256
464.01	15.5679
464.14	17.2688
464.27	18.4547
464.40	17.7068
464.53	16.1867
464.66	17.9313
464.79	18.0335
464.92	17.0098
465.05	17.3062
465.18	17.3289
465.31	18.7713
465.44	18.6325
465.57	16.1828
465.70	16.8023
465.83	18.6942
465.96	16.8400
466.09	15.9224
466.22	19.4204
466.35	19.6824
466.48	18.4876
466.61	19.0048
466.74	18.8395
466.87	17.8289
467.00	16.5226
467.13	17.1741
467.26	18.6623
467.39	19.2809
467.52	17.6910
467.65	18.7479
467.78	17.5270
467.91	16.4571
468.04	16.1964
468.17	18.5219
468.30	18.5591
468.43	17.8129
468.56	16.7749
468.69	17.9331
468.82	17.6030
468.95	17.6829
469.08	18.7100
469.21	18.2828
469.34	16.4883
469.47	17.0065
469.60	16.6728
469.73	15.6800
469.86	18.1586
469.99	19.5284
470.11	17.8389
470.24	17.5102
470.37	18.9818
470.50	18.6015
470.63	17.6071
470.76	16.5739
470.89	18.1838
471.02	18.5506
471.15	16.0961
471.28	16.0819
471.41	18.4821
471.54	18.5006
471.67	16.5268
471.80	17.7175
471.93	18.6458
472.06	19.2157
472.19	16.2062
472.32	16.5324
472.45	17.3110
472.58	16.9017
472.71	16.2728
472.84	18.3759
472.97	17.8988
473.10	18.8732
473.23	18.1649
473.36	17.4067
473.49	16.8738
473.62	17.3046
473.74	16.7085
473.87	18.0256
474.00	17.8324
474.13	17.1659
474.26	18.0727
474.39	17.7846
474.52	17.0114
474.65	18.7894
474.78	19.6923
474.91	17.7723
475.04	17.7745
475.17	18.3591
475.30	16.5596
475.43	16.5228
475.56	18.0494
475.69	18.6717
475.82	17.6977
475.95	18.6375
476.08	18.3785
476.21	18.3357
476.34	16.6724
476.46	17.7710
476.59	17.7776
476.72	18.7149
476.85	17.8097
476.98	18.3096
477.11	18.6417
477.24	18.2860
477.37	16.8297
477.50	17.9946
477.63	18.8295
477.76	18.2225
477.89	17.8816
478.02	18.6369
478.15	18.3845
478.28	18.3314
478.41	17.6338
478.54	18.1963
478.66	18.4077
478.79	18.6499
478.92	17.9329
479.05	18.6257
479.18	18.3804
479.31	18.3308
479.44	18.2961
479.57	18.4268
479.70	18.9313
479.83	19.5154
479.96	18.2389
480.09	17.6846
480.22	18.0919
480.35	17.7380
480.48	17.7501
480.60	18.5074
480.73	19.2742
480.86	19.4123
480.99	19.2789
481.12	18.1411
481.25	18.9440
481.38	18.9470
481.51	18.3931
481.64	18.5074
481.77	19.3652
481.90	19.2603
482.03	18.6077
482.16	19.0496
482.29	19.0027
482.41	19.4930
482.54	19.3673
482.67	19.5375
482.80	20.2175
482.93	19.6347
483.06	18.9689
483.19	19.3331
483.32	19.9398
483.45	18.9509
483.58	19.2223
483.71	19.2640
483.84	18.9281
483.97	18.8432
484.09	19.1229
484.22	19.6819
484.35	19.8380
484.48	19.6912
484.61	19.4677
484.74	19.8080
484.87	19.2867
485.00	19.7202
485.13	19.8690
485.26	20.3280
485.39	19.5803
485.52	19.7385
485.64	19.1571
485.77	19.8130
485.90	19.4644
486.03	20.3547
486.16	20.6043
486.29	20.7412
486.42	20.4409
486.55	20.2943
486.68	20.0105
486.81	20.3990
486.94	20.4174
487.06	20.1852
487.19	20.6952
487.32	20.9186
487.45	20.5772
487.58	21.1399
487.71	20.9323
487.84	20.2306
487.97	20.1846
488.10	20.6046
488.23	20.0827
488.35	20.7235
488.48	21.4920
488.61	21.8601
488.74	21.7842
488.87	21.5537
489.00	21.4883
489.13	21.6621
489.26	21.3645
489.39	21.2405
489.52	21.8976
489.64	21.8430
489.77	21.8772
489.90	22.0215
490.03	22.2238
490.16	22.3300
490.29	22.2119
490.42	22.3252
490.55	22.4168
490.68	22.9295
490.81	22.3825
490.93	22.6649
491.06	22.5674
491.19	22.1805
491.32	22.1451
491.45	22.7761
491.58	23.0501
491.71	23.5041
491.84	23.5468
491.97	23.2300
492.09	23.5353
492.22	23.1949
492.35	23.1157
492.48	23.8946
492.61	23.8328
492.74	23.5565
492.87	24.1070
493.00	23.8599
493.12	23.5143
493.25	23.9313
493.38	24.5646
493.51	24.4158
493.64	24.5866
493.77	25.0351
493.90	24.7408
494.03	24.2205
494.16	24.8034
494.28	25.5093
494.41	24.8024
494.54	24.8714
494.67	25.7313
494.80	25.4292
494.93	25.0269
495.06	25.9364
495.19	26.6312
495.31	26.5880
495.44	26.4988
495.57	26.7852
495.70	27.2733
495.83	27.3291
495.96	26.7686
496.09	26.7482
496.22	27.3440
496.34	27.1670
496.47	26.8777
496.60	27.1421
496.73	27.9443
496.86	27.4492
496.99	27.8534
497.12	28.1321
497.24	28.3841
497.37	28.4949
497.50	28.9701
497.63	28.2205
497.76	28.1565
497.89	29.2388
498.02	29.3367
498.15	29.0299
498.27	29.4135
498.40	29.9080
498.53	29.2207
498.66	29.6592
498.79	29.9769
498.92	30.4603
499.05	30.7050
499.17	30.3634
499.30	29.9151
499.43	30.5401
499.56	30.3363
499.69	30.2988
499.82	31.1895
499.95	31.6095
500.07	31.3327
500.20	30.9398
500.33	31.3963
500.46	31.7181
500.59	31.7450
500.72	31.7662
500.85	32.5154
500.97	32.8949
501.10	32.8075
501.23	32.4772
501.36	32.7523
501.49	33.2312
501.62	32.5925
501.75	33.0943
501.87	33.5957
502.00	33.5789
502.13	33.7857
502.26	34.3183
502.39	34.4278
502.52	34.8400
502.64	34.8742
502.77	34.8572
502.90	35.2814
503.03	35.3236
503.16	35.0401
503.29	35.5572
503.42	35.9738
503.54	36.0394
503.67	35.6432
503.80	36.6073
503.93	36.9691
504.06	36.5948
504.19	36.7151
504.31	37.2133
504.44	36.8994
504.57	37.2629
504.70	37.6839
504.83	37.9299
504.96	38.2542
505.08	37.9178
505.21	37.6649
505.34	38.0804
505.47	38.1236
505.60	38.2759
505.73	38.2842
505.85	38.7256
505.98	39.0972
506.11	39.3950
506.24	39.4321
506.37	39.9989
506.50	40.1511
506.62	40.1641
506.75	39.9444
506.88	40.3682
507.01	40.8043
507.14	40.8873
507.27	41.0151
507.39	41.5006
507.52	41.2168
507.65	41.7973
507.78	41.7188
507.91	41.5666
508.04	41.6291
508.16	42.0815
508.29	42.1763
508.42	42.6351
508.55	42.3945
508.68	42.7277
508.81	42.9925
508.93	42.7124
509.06	42.6224
509.19	43.3112
509.32	43.1439
509.45	43.2749
509.57	43.4760
509.70	43.8584
509.83	44.0280
509.96	44.3462
510.09	44.4546
510.22	44.8572
510.34	44.3982
510.47	44.5876
510.60	44.7206
510.73	44.8934
510.86	45.1085
510.98	45.5489
511.11	45.5825
511.24	45.9370
511.37	45.9917
511.50	45.9044
511.63	46.2524
511.75	46.3490
511.88	46.2719
512.01	46.2227
512.14	46.3493
512.27	46.3500
512.39	46.4648
512.52	46.6965
512.65	46.9159
512.78	46.8947
512.91	46.8824
513.03	46.9410
513.16	47.0331
513.29	47.1961
513.42	47.1098
513.55	47.6210
513.67	47.9899
513.80	47.9536
513.93	47.8421
514.06	48.2513
514.19	47.9548
514.31	48.1420
514.44	48.2250
514.57	48.1299
514.70	48.4748
514.83	48.8366
514.95	48.6283
515.08	48.7611
515.21	49.1894
515.34	49.2544
515.47	49.2290
515.59	49.3944
515.72	49.1893
515.85	49.4186
515.98	49.2331
516.11	49.1001
516.23	49.3075
516.36	49.9012
516.49	49.6297
516.62	49.4912
516.75	50.2084
516.87	50.1654
517.00	49.6347
517.13	49.8664
517.26	50.7032
517.39	50.3280
517.51	49.9724
517.64	50.6497
517.77	50.7002
517.90	50.3531
518.02	50.7874
518.15	51.1488
518.28	50.8410
518.41	50.8252
518.54	50.8758
518.66	50.7642
518.79	50.9881
518.92	51.0682
519.05	50.9621
519.18	51.0605
519.30	51.0473
519.43	51.1047
519.56	50.9757
519.69	51.4237
519.81	51.7124
519.94	51.7705
520.07	51.7544
520.20	51.9389
520.33	52.0303
520.45	51.7881
520.58	51.6369
520.71	51.7463
520.84	52.1533
520.96	52.2592
521.09	52.1158
521.22	52.1631
521.35	52.4364
521.48	52.4860
521.60	52.2929
521.73	52.1440
521.86	52.5129
521.99	52.5489
522.11	52.3048
522.24	52.4308
522.37	52.4387
522.50	52.6294
522.62	52.4076
522.75	52.6400
522.88	52.5939
523.01	52.8895
523.14	52.3563
523.26	52.8019
523.39	52.4981
523.52	52.6032
523.65	52.8939
523.77	53.2230
523.90	52.8880
524.03	53.2052
524.16	53.3137
524.28	53.1934
524.41	53.4370
524.54	53.5496
524.67	53.3248
524.79	52.9283
524.92	53.1970
525.05	52.8998
525.18	53.1500
525.31	52.7765
525.43	53.4231
525.56	53.8053
525.69	53.7738
525.82	53.3992
525.94	54.2188
526.07	54.1560
526.20	53.3471
526.33	53.3681
526.45	53.6111
526.58	53.5619
526.71	53.3163
526.84	53.7890
526.96	53.8670
527.09	53.8750
527.22	54.0494
527.35	53.7801
527.47	53.8350
527.60	53.8106
527.73	53.6218
527.86	53.3525
527.98	53.8700
528.11	53.5489
528.24	53.9070
528.37	54.0309
528.49	53.8191
528.62	54.0837
528.75	54.3264
528.88	54.0942
529.00	54.3933
529.13	54.9094
529.26	54.3073
529.39	54.1459
529.51	54.6443
529.64	54.5992
529.77	54.3642
529.90	54.7290
530.02	55.1263
530.15	54.8071
530.28	54.6698
530.40	54.6320
530.53	54.7711
530.66	54.4655
530.79	54.5256
530.91	54.5239
531.04	54.6912
531.17	54.5551
531.30	54.6797
531.42	54.2324
531.55	54.4977
531.68	54.5829
531.81	54.5617
531.93	54.7917
532.06	55.1632
532.19	54.8977
532.31	54.7085
532.44	54.9723
532.57	54.8105
532.70	54.7332
532.82	54.6377
532.95	54.6748
533.08	54.6852
533.21	54.8944
533.33	55.1285
533.46	54.9036
533.59	55.1549
533.71	55.2163
533.84	55.1276
533.97	55.1133
534.10	55.5119
534.22	55.3913
534.35	54.9807
534.48	55.0545
534.61	55.1525
534.73	55.0715
534.86	54.8709
534.99	55.1509
535.11	55.1224
535.24	55.2018
535.37	55.5313
535.50	55.5413
535.62	55.4127
535.75	55.4204
535.88	55.2088
536.00	54.9871
536.13	55.2422
536.26	55.5296
536.39	55.2765
536.51	55.4287
536.64	55.6552
536.77	55.6669
536.89	55.4988
537.02	55.7519
537.15	55.6422
537.28	55.7107
537.40	55.5673
537.53	55.5671
537.66	55.7246
537.78	55.9331
537.91	55.8048
538.04	56.2424
538.17	56.1053
538.29	55.7089
538.42	55.5844
538.55	55.8104
538.67	55.5846
538.80	56.0432
538.93	56.1433
539.05	56.1073
539.18	55.9465
539.31	56.3168
539.44	56.0931
539.56	56.3070
539.69	56.6743
539.82	56.8754
539.94	56.2647
540.07	56.4103
540.20	56.4891
540.32	56.2462
540.45	55.8310
540.58	56.4637
540.71	56.6414
540.83	56.7162
540.96	56.5050
541.09	56.6107
541.21	56.6805
541.34	56.6959
541.47	56.5190
541.59	56.3941
541.72	56.6230
541.85	56.7342
541.98	56.6663
542.10	56.2984
542.23	56.7272
542.36	56.8080
542.48	56.6041
542.61	56.4909
542.74	57.0341
542.86	57.1784
542.99	57.0845
543.12	57.1529
543.24	57.1428
543.37	57.1722
543.50	57.0846
543.62	57.3098
543.75	57.2594
543.88	57.2637
544.01	57.1499
544.13	57.2770
544.26	57.2168
544.39	57.1553
544.51	57.1605
544.64	57.4082
544.77	57.2946
544.89	57.4626
545.02	57.2849
545.15	57.2226
545.27	57.1846
545.40	57.1753
545.53	57.2994
545.65	57.7576
545.78	58.0038
545.91	57.8947
546.03	58.1342
546.16	58.0008
546.29	57.8351
546.41	58.0658
546.54	58.0730
546.67	57.7743
546.79	58.0376
546.92	58.0756
547.05	58.0360
547.17	58.1765
547.30	58.6224
547.43	58.3346
547.56	58.4859
547.68	58.3652
547.81	58.4519
547.94	58.4636
548.06	58.3301
548.19	58.3772
548.32	58.6168
548.44	58.5576
548.57	58.2562
548.70	58.4587
548.82	58.4935
548.95	58.5692
549.08	58.3549
549.20	58.6309
549.33	58.8466
549.45	59.0534
549.58	58.7981
549.71	59.4309
549.83	59.4231
549.96	59.3218
550.09	59.0231
550.21	59.3074
550.34	59.1386
550.47	59.5701
550.59	59.6386
550.72	59.4671
550.85	59.5844
550.97	59.7885
551.10	59.2788
551.23	59.2921
551.35	59.8210
551.48	59.9239
551.61	59.6360
551.73	59.8288
551.86	60.1065
551.99	59.8660
552.11	59.6683
552.24	60.0769
552.37	60.2979
552.49	60.1373
552.62	60.3970
552.75	60.6716
552.87	60.5501
553.00	60.6006
553.12	60.6288
553.25	60.4299
553.38	60.3227
553.50	60.5871
553.63	60.4772
553.76	60.6016
553.88	60.8969
554.01	60.8558
554.14	60.4896
554.26	60.7395
554.39	60.8081
554.52	60.9174
554.64	61.0491
554.77	61.2571
554.89	61.2068
555.02	61.3270
555.15	61.3369
555.27	61.2174
555.40	61.5007
555.53	61.8183
555.65	61.7020
555.78	61.5279
555.91	62.0550
556.03	62.1865
556.16	61.9047
556.29	61.8800
556.41	62.3209
556.54	62.2756
556.66	61.7717
556.79	61.8984
556.92	62.3893
557.04	62.2344
557.17	62.1502
557.30	62.6136
557.42	62.6175
557.55	62.5258
557.67	62.6000
557.80	62.6538
557.93	62.9651
558.05	63.1896
558.18	63.1477
558.31	63.1890
558.43	63.3917
558.56	63.4409
558.68	63.4961
558.81	63.3135
558.94	63.5943
559.06	63.6432
559.19	63.5915
559.32	63.5970
559.44	64.0326
559.57	64.0404
559.69	63.9882
559.82	64.0171
559.95	64.4379
560.07	64.5086
560.20	64.4243
560.33	64.7718
560.45	64.6136
560.58	64.5432
560.70	64.6582
560.83	64.7867
560.96	64.5215
561.08	64.9718
561.21	65.2161
561.33	65.0382
561.46	65.2642
561.59	65.5558
561.71	65.6054
561.84	65.3572
561.97	65.8053
562.09	65.9409
562.22	65.8790
562.34	65.8679
562.47	66.0907
562.60	66.1000
562.72	65.9966
562.85	66.2058
562.97	66.3504
563.10	66.4362
563.23	66.3759
563.35	66.4807
563.48	66.4443
563.60	66.6818
563.73	66.8475
563.86	67.0421
563.98	67.2998
564.11	67.3077
564.23	67.2582
564.36	67.1159
564.49	67.2765
564.61	67.3880
564.74	67.5298
564.86	67.5496
564.99	67.6426
565.12	67.7397
565.24	67.7511
565.37	67.8867
565.49	68.0739
565.62	68.5916
565.75	68.1911
565.87	68.2140
566.00	68.6895
566.12	68.5787
566.25	68.4410
566.38	68.8340
566.50	68.9510
566.63	68.8640
566.75	69.1610
566.88	69.1741
567.01	69.4090
567.13	69.6590
567.26	69.4999
567.38	69.6426
567.51	69.6907
567.64	69.6492
567.76	69.6771
567.89	70.0259
568.01	69.8982
568.14	69.9817
568.26	70.1841
568.39	70.1082
568.52	70.1073
568.64	70.3113
568.77	70.4794
568.89	70.6871
569.02	70.9594
569.15	70.9768
569.27	70.9003
569.40	70.9457
569.52	70.9542
569.65	71.0692
569.77	71.3467
569.90	71.3409
570.03	71.5876
570.15	71.7830
570.28	72.0517
570.40	72.0407
570.53	72.3190
570.66	72.3487
570.78	72.3982
570.91	72.1469
571.03	72.2094
571.16	72.3922
571.28	72.4059
571.41	72.5263
571.54	72.6437
571.66	72.7523
571.79	72.8893
571.91	72.8946
572.04	72.6586
572.16	72.7973
572.29	72.8183
572.42	72.8737
572.54	72.9160
572.67	73.2487
572.79	73.3339
572.92	73.4181
573.04	73.5604
573.17	73.8950
573.29	73.6486
573.42	73.5403
573.55	73.6568
573.67	73.7271
573.80	73.7397
573.92	73.8876
574.05	74.0661
574.17	74.1598
574.30	74.2574
574.43	74.2131
574.55	74.5599
574.68	74.7209
574.80	74.9349
574.93	74.9897
575.05	75.1554
575.18	75.0275
575.30	74.9206
575.43	74.9395
575.56	74.9804
575.68	75.1566
575.81	75.2496
575.93	75.4617
576.06	75.6300
576.18	75.7719
576.31	75.4231
576.43	75.4950
576.56	75.6066
576.69	75.6612
576.81	75.6571
576.94	75.9606
577.06	76.1754
577.19	76.1788
577.31	75.9120
577.44	75.9920
577.56	75.9981
577.69	76.1544
577.82	76.5832
577.94	76.7305
578.07	76.5840
578.19	76.9827
578.32	77.0267
578.44	76.7299
578.57	76.9565
578.69	77.0645
578.82	76.8030
578.94	76.7603
579.07	76.8491
579.19	76.8255
579.32	77.0767
579.45	77.3576
579.57	77.3326
579.70	77.4657
579.82	77.3484
579.95	77.3885
580.07	77.2810
580.20	77.4023
580.32	77.4416
580.45	77.6984
580.57	77.6221
580.70	77.5960
580.82	77.9701
580.95	77.7923
581.08	77.9151
581.20	78.0037
581.33	78.1994
581.45	77.7981
581.58	78.3388
581.70	78.2647
581.83	78.2141
581.95	78.3042
582.08	78.5534
582.20	78.3722
582.33	78.5323
582.45	78.6047
582.58	78.6490
582.70	78.7146
582.83	78.6893
582.95	78.6558
583.08	78.6858
583.21	78.7790
583.33	79.0432
583.46	79.0750
583.58	79.0278
583.71	79.1972
583.83	79.1664
583.96	78.9140
584.08	78.9225
584.21	79.1521
584.33	79.3357
584.46	79.1844
584.58	79.0623
584.71	79.2314
584.83	79.3417
584.96	79.0655
585.08	79.0820
585.21	79.2954
585.33	79.2060
585.46	79.2464
585.58	79.4947
585.71	79.5406
585.83	79.6752
585.96	79.6361
586.08	79.4023
586.21	79.5137
586.33	79.6165
586.46	79.6225
586.59	79.7014
586.71	79.7763
586.84	79.8380
586.96	79.9892
587.09	79.6297
587.21	79.6926
587.34	79.8876
587.46	79.6095
587.59	79.5979
587.71	80.1250
587.84	80.3017
587.96	80.0930
588.09	80.1971
588.21	80.1712
588.34	80.0566
588.46	79.9907
588.59	80.2071
588.71	80.2951
588.84	80.0270
588.96	80.0045
589.09	80.2021
589.21	80.2859
589.34	80.2217
589.46	80.5067
589.59	80.7780
589.71	80.7832
589.84	80.6804
589.96	80.7205
590.09	80.7914
590.21	80.5608
590.34	80.5948
590.46	80.5896
590.59	80.4210
590.71	80.6056
590.84	80.4724
590.96	80.2880
591.09	80.4373
591.21	80.8783
591.34	80.5445
591.46	80.6391
591.59	80.5844
591.71	80.6975
591.83	80.5336
591.96	80.7992
592.08	80.9693
592.21	81.2169
592.33	81.2605
592.46	81.2459
592.58	81.1180
592.71	81.0974
592.83	80.8179
592.96	80.7259
593.08	80.8968
593.21	81.0945
593.33	81.1543
593.46	81.2257
593.58	81.1272
593.71	81.2387
593.83	80.9474
593.96	80.8693
594.08	81.0753
594.21	81.1199
594.33	81.1166
594.46	81.5701
594.58	81.6878
594.71	81.7075
594.83	81.3378
594.96	81.2055
595.08	81.2054
595.20	81.3469
595.33	80.9192
595.45	81.3074
595.58	81.4962
595.70	81.4362
595.83	81.1918
595.95	81.6065
596.08	81.7468
596.20	81.5296
596.33	81.5009
596.45	81.7119
596.58	81.5947
596.70	81.5249
596.83	81.5330
596.95	81.7398
597.08	81.6580
597.20	81.7025
597.32	81.6473
597.45	81.6537
597.57	81.5151
597.70	81.4453
597.82	81.5361
597.95	81.5313
598.07	81.5510
598.20	81.5870
598.32	81.5196
598.45	81.3631
598.57	81.5176
598.70	81.6473
598.82	81.4027
598.94	81.4163
599.07	81.5619
599.19	81.8001
599.32	81.5249
599.44	81.6885
599.57	81.9014
599.69	82.1228
599.82	81.6162
599.94	81.8271
600.07	82.0766
600.19	82.1354
600.31	81.6766
600.44	81.7914
600.56	81.8868
600.69	81.7347
600.81	81.6537
600.94	81.8226
601.06	81.7459
601.19	81.8536
601.31	81.5909
601.44	81.4939
601.56	81.5710
601.68	81.7747
601.81	81.4344
601.93	81.8183
602.06	82.0679
602.18	81.9375
602.31	81.8347
602.43	82.0460
602.56	81.9625
602.68	81.7306
602.80	82.0491
602.93	82.1171
603.05	82.0855
603.18	82.1474
603.30	82.2940
603.43	82.0795
603.55	82.0582
603.68	82.0236
603.80	81.8809
603.92	81.8133
604.05	82.0815
604.17	82.1564
604.30	82.1601
604.42	82.0580
604.55	82.0846
604.67	81.8763
604.79	81.7637
604.92	81.8141
605.04	81.9589
605.17	81.9800
605.29	81.8687
605.42	82.0858
605.54	82.1057
605.66	82.1211
605.79	82.0452
605.91	82.2841
606.04	82.0723
606.16	82.0604
606.29	82.2066
606.41	82.4171
606.53	82.3347
606.66	82.5922
606.78	82.6787
606.91	82.5446
607.03	82.5165
607.16	82.4385
607.28	82.2087
607.40	82.2246
607.53	82.3259
607.65	82.3485
607.78	82.2630
607.90	82.5634
608.03	82.6003
608.15	82.7812
608.27	82.8313
608.40	83.1699
608.52	82.8837
608.65	83.0304
608.77	82.7356
608.89	82.4252
609.02	82.4624
609.14	82.5556
609.27	82.4710
609.39	82.9145
609.52	83.2283
609.64	83.2543
609.76	83.2443
609.89	83.0605
610.01	82.8825
610.14	82.9349
610.26	82.6851
610.38	82.9362
610.51	83.1684
610.63	82.9967
610.76	82.8776
610.88	82.7889
611.01	82.6293
611.13	82.6764
611.25	82.8077
611.38	82.9461
611.50	83.1927
611.63	83.3495
611.75	83.2843
611.87	83.0766
612.00	82.9921
612.12	83.2408
612.25	83.1640
612.37	83.1282
612.49	83.0895
612.62	83.1538
612.74	82.9678
612.87	83.1361
612.99	83.0785
613.11	83.1404
613.24	83.1259
613.36	83.1941
613.49	83.1375
613.61	83.1411
613.73	83.4845
613.86	83.5768
613.98	83.5059
614.11	83.3888
614.23	83.4337
614.35	83.3583
614.48	83.3246
614.60	83.3058
614.72	83.4271
614.85	83.5534
614.97	83.5873
615.10	83.4982
615.22	83.4973
615.34	83.6086
615.47	83.5746
615.59	83.4956
615.72	83.8016
615.84	83.5918
615.96	83.5257
616.09	83.7008
616.21	83.6736
616.34	83.4500
616.46	83.8044
616.58	83.7593
616.71	83.5597
616.83	83.4876
616.95	83.5145
617.08	83.5988
617.20	83.7635
617.33	83.6896
617.45	83.9094
617.57	84.0501
617.70	83.9098
617.82	83.7093
617.95	83.9083
618.07	83.8054
618.19	83.6291
618.32	83.8179
618.44	84.1011
618.56	84.3238
618.69	84.2591
618.81	84.4753
618.94	84.4307
619.06	84.3329
619.18	84.2988
619.31	84.3724
619.43	84.1957
619.55	84.5013
619.68	84.6907
619.80	84.2931
619.92	84.3022
620.05	84.6462
620.17	84.6456
620.30	84.4490
620.42	84.8036
620.54	85.0707
620.67	84.9912
620.79	84.5972
620.91	84.6556
621.04	84.6925
621.16	84.8199
621.29	84.7818
621.41	85.0183
621.53	85.2654
621.66	85.1047
621.78	84.6331
621.90	84.7815
622.03	84.8275
622.15	84.6673
622.27	84.9107
622.40	85.1461
622.52	85.2812
622.64	85.2974
622.77	85.1077
622.89	85.1124
623.02	85.2261
623.14	85.0072
623.26	84.8400
623.39	85.1615
623.51	85.3340
623.63	85.1971
623.76	85.2051
623.88	85.4758
624.00	85.4248
624.13	85.3645
624.25	85.4692
624.37	85.4051
624.50	85.6623
624.62	85.9328
624.75	85.7185
624.87	85.9252
624.99	86.0953
625.12	85.4036
625.24	85.1516
625.36	85.3162
625.49	85.1311
625.61	84.9408
625.73	85.4802
625.86	85.5552
625.98	85.6594
626.10	85.6476
626.23	85.7834
626.35	85.7666
626.47	85.7651
626.60	85.6992
626.72	85.7300
626.84	85.9274
626.97	86.0445
627.09	85.8177
627.21	85.7295
627.34	86.1205
627.46	86.1465
627.58	85.8635
627.71	86.4957
627.83	86.4952
627.95	85.9626
628.08	85.9725
628.20	86.3819
628.32	86.2143
628.45	86.4168
628.57	86.7576
628.69	86.6117
628.82	86.6179
628.94	86.5862
629.06	86.5034
629.19	86.7221
629.31	86.7930
629.43	86.6271
629.56	86.4146
629.68	86.5979
629.80	86.5051
629.93	86.5959
630.05	86.6031
630.17	86.9672
630.30	86.8820
630.42	87.0280
630.54	87.2588
630.67	87.0734
630.79	87.0607
630.91	87.1670
631.04	87.1060
631.16	87.0343
631.28	87.3880
631.41	87.1395
631.53	86.9487
631.65	86.7755
631.78	86.6616
631.90	86.9263
632.02	86.9594
632.14	87.2307
632.27	87.5105
632.39	87.3286
632.51	87.0971
632.64	87.3374
632.76	87.3103
632.88	87.3076
633.01	87.5210
633.13	87.0878
633.25	87.2316
633.38	87.3654
633.50	87.3727
633.62	87.6040
633.75	87.9522
633.87	87.8357
633.99	87.9147
634.11	87.7663
634.24	87.6846
634.36	87.8024
634.48	87.5919
634.61	87.6153
634.73	87.8235
634.85	87.8950
634.98	87.9903
635.10	87.9116
635.22	87.8046
635.35	88.0548
635.47	88.0613
635.59	87.9632
635.71	88.2210
635.84	88.1445
635.96	88.0530
636.08	87.9621
636.21	87.9344
636.33	88.2029
636.45	88.4965
636.58	88.1380
636.70	88.3172
636.82	88.7200
636.94	88.4640
637.07	88.2064
637.19	88.4243
637.31	88.5526
637.44	88.3021
637.56	88.4435
637.68	88.6052
637.81	89.0604
637.93	88.8153
638.05	88.4461
638.17	88.5244
638.30	88.5734
638.42	88.1632
638.54	88.2591
638.67	88.6160
638.79	88.7224
638.91	88.7742
639.03	88.9303
639.16	89.0171
639.28	89.1644
639.40	88.8264
639.53	88.8303
639.65	88.9139
639.77	88.8151
639.89	88.7316
640.02	89.1302
640.14	88.8710
640.26	88.8389
640.39	88.9478
640.51	88.8006
640.63	88.5450
640.75	88.8326
640.88	88.8023
641.00	88.4409
641.12	88.8443
641.24	89.2746
641.37	88.8982
641.49	88.9940
641.61	89.3403
641.74	89.3306
641.86	88.9380
641.98	89.2699
642.10	89.3012
642.23	89.3353
642.35	89.0845
642.47	89.0818
642.60	89.2235
642.72	89.1148
642.84	89.0740
642.96	89.1366
643.09	89.3467
643.21	89.3336
643.33	89.3032
643.45	89.1647
643.58	89.3540
643.70	89.3059
643.82	89.2900
643.94	89.4134
644.07	89.6316
644.19	89.4494
644.31	89.5347
644.44	89.5183
644.56	89.5136
644.68	89.5448
644.80	89.6976
644.93	89.5863
645.05	89.6471
645.17	89.6772
645.29	89.7177
645.42	89.5048
645.54	89.5154
645.66	89.5304
645.78	89.4145
645.91	89.1829
646.03	89.4699
646.15	89.5978
646.27	89.5870
646.40	89.5213
646.52	89.8361
646.64	89.9285
646.76	89.7117
646.89	89.5625
647.01	89.5219
647.13	89.6488
647.25	89.4796
647.38	89.4546
647.50	89.8037
647.62	90.1875
647.74	89.8485
647.87	89.6463
647.99	89.8665
648.11	89.8922
648.23	89.6205
648.36	89.8424
648.48	90.1995
648.60	90.4331
648.72	89.9485
648.85	90.0812
648.97	90.1325
649.09	90.0817
649.21	89.8754
649.34	90.1805
649.46	90.2525
649.58	90.3608
649.70	90.1542
649.83	90.1270
649.95	90.0927
650.07	90.0424
650.19	89.7936
650.32	89.8657
650.44	89.9343
650.56	89.9498
650.68	89.9566
650.81	89.8296
650.93	89.9240
651.05	89.8017
651.17	89.8646
651.29	89.8771
651.42	90.2369
651.54	90.4397
651.66	90.4471
651.78	89.9846
651.91	90.0088
652.03	90.0413
652.15	89.8587
652.27	90.0812
652.40	90.6135
652.52	90.8337
652.64	90.3259
652.76	90.3463
652.88	90.3778
653.01	90.5788
653.13	90.2526
653.25	90.4914
653.37	90.5236
653.50	90.5961
653.62	90.1013
653.74	90.1035
653.86	90.4092
653.98	90.4443
654.11	90.3342
654.23	90.3179
654.35	90.4571
654.47	90.4626
654.60	90.7102
654.72	90.4541
654.84	90.7543
654.96	90.8072
655.08	90.7129
655.21	90.3706
655.33	90.5810
655.45	90.6084
655.57	90.4233
655.70	90.1381
655.82	90.1523
655.94	90.4428
656.06	90.2701
656.18	90.2970
656.31	90.6410
656.43	90.7892
656.55	90.5642
656.67	90.5783
656.79	90.8573
656.92	90.9382
657.04	90.6428
657.16	90.7082
657.28	90.7602
657.40	90.8291
657.53	90.6621
657.65	90.6712
657.77	90.7728
657.89	91.0385
658.01	90.7734
658.14	90.8204
658.26	91.1945
658.38	91.0391
658.50	90.4963
658.62	90.6168
658.75	90.5649
658.87	90.7380
658.99	90.7976
659.11	90.9127
659.23	91.0321
659.36	91.1499
659.48	90.9644
659.60	91.0241
659.72	91.2917
659.84	91.2407
659.97	90.8014
660.09	90.5816
660.21	90.7620
660.33	91.0611
660.45	90.9742
660.58	91.1981
660.70	91.5730
660.82	91.2671
660.94	90.8214
661.06	90.7412
661.19	91.0047
661.31	90.8396
661.43	90.7360
661.55	90.7205
661.67	90.9833
661.80	90.8753
661.92	90.8297
662.04	90.8892
662.16	91.2402
662.28	91.1402
662.40	91.0775
662.53	91.2676
662.65	91.2524
662.77	91.2830
662.89	91.4539
663.01	91.5536
663.14	91.3196
663.26	91.6006
663.38	91.3738
663.50	90.9224
663.62	90.8513
663.74	90.9104
663.87	90.5867
663.99	90.1723
664.11	90.4318
664.23	90.5983
664.35	90.4831
664.48	90.7619
664.60	91.4146
664.72	91.5320
664.84	91.3023
664.96	91.5215
665.08	91.3640
665.21	91.4646
665.33	91.2679
665.45	91.1875
665.57	91.0674
665.69	91.1127
665.81	90.8984
665.94	90.8304
666.06	90.9707
666.18	91.2767
666.30	91.1386
666.42	90.9970
666.54	91.2430
666.67	91.1206
666.79	90.8452
666.91	91.1447
667.03	91.2449
667.15	91.1885
667.27	91.4148
667.40	91.1101
667.52	90.8565
667.64	90.9698
667.76	90.6991
667.88	90.3966
668.00	90.5709
668.13	90.6476
668.25	90.5169
668.37	90.4962
668.49	90.8583
668.61	91.0573
668.73	91.0130
668.85	90.9135
668.98	91.2826
669.10	91.0776
669.22	90.7182
669.34	90.8936
669.46	90.8614
669.58	90.5806
669.71	90.7421
669.83	90.9020
669.95	90.7265
670.07	90.7333
670.19	90.9742
670.31	90.9293
670.43	90.8567
670.56	90.8308
670.68	91.0411
670.80	90.5602
670.92	90.4506
671.04	90.6671
671.16	90.7459
671.28	90.4271
671.41	90.8202
671.53	91.1365
671.65	90.7314
671.77	90.4697
671.89	90.7073
672.01	90.8944
672.13	90.5050
672.26	90.9095
672.38	90.9152
672.50	90.6517
672.62	90.2309
672.74	90.3617
672.86	90.2611
672.98	90.4760
673.11	90.4327
673.23	90.6841
673.35	90.6682
673.47	90.8977
673.59	90.7700
673.71	90.5502
673.83	90.4238
673.96	90.6136
674.08	90.2546
674.20	90.2483
674.32	90.6862
674.44	90.7653
674.56	90.3612
674.68	90.3070
674.80	90.4685
674.93	90.4136
675.05	90.1712
675.17	90.1793
675.29	90.3374
675.41	90.2506
675.53	90.2778
675.65	90.2450
675.77	90.4343
675.90	90.5914
676.02	90.2627
676.14	89.9180
676.26	90.1691
676.38	90.1225
676.50	90.0397
676.62	90.5513
676.74	90.7430
676.87	90.3704
676.99	90.1943
677.11	90.0342
677.23	89.7223
677.35	89.9035
677.47	90.1456
677.59	90.0592
677.71	90.0235
677.83	89.9035
677.96	89.7552
678.08	89.7661
678.20	89.9752
678.32	90.0194
678.44	89.7636
678.56	89.6636
678.68	89.7997
678.80	89.7995
678.93	89.7427
679.05	89.9574
679.17	90.1709
679.29	90.1254
679.41	90.1217
679.53	90.0862
679.65	90.2314
679.77	90.0501
679.89	89.6627
680.01	89.8525
680.14	90.0491
680.26	89.9001
680.38	89.8278
680.50	90.0325
680.62	89.7723
680.74	89.6642
680.86	89.8009
680.98	89.5098
681.10	89.5485
681.22	89.6772
681.35	89.7415
681.47	89.1443
681.59	89.4932
681.71	89.5232
681.83	89.1324
681.95	88.6923
682.07	89.2077
682.19	89.2624
682.31	88.9176
682.43	89.2575
682.56	89.5509
682.68	89.5160
682.80	89.2820
682.92	89.5175
683.04	89.4800
683.16	89.2412
683.28	89.2037
683.40	89.2166
683.52	89.1925
683.64	89.0976
683.76	89.2682
683.89	89.1040
684.01	89.1533
684.13	89.1481
684.25	89.0356
684.37	89.0952
684.49	89.0581
684.61	89.1331
684.73	89.2521
684.85	89.0390
684.97	89.0840
685.09	89.5359
685.21	89.2304
685.34	89.2018
685.46	89.5074
685.58	89.2122
685.70	89.1772
685.82	89.5021
685.94	89.4691
686.06	89.4443
686.18	89.6603
686.30	89.3860
686.42	89.4899
686.54	89.1465
686.66	89.1810
686.79	88.8853
686.91	88.9373
687.03	89.0387
687.15	89.4824
687.27	89.2968
687.39	89.6777
687.51	89.7946
687.63	89.5649
687.75	89.1538
687.87	89.5201
687.99	89.3651
688.11	89.0817
688.23	89.1168
688.35	89.4501
688.48	89.3113
688.60	89.2333
688.72	89.4321
688.84	89.5219
688.96	89.5917
689.08	89.0769
689.20	89.0981
689.32	89.2318
689.44	89.2934
689.56	89.0915
689.68	89.5110
689.80	89.5777
689.92	89.4701
690.04	89.3236
690.16	89.3121
690.28	89.6531
690.41	89.6111
690.53	89.3333
690.65	89.1795
690.77	89.2694
690.89	89.0183
691.01	89.1755
691.13	89.3439
691.25	89.5482
691.37	89.8016
691.49	89.4248
691.61	89.2938
691.73	89.6467
691.85	89.7951
691.97	89.3228
692.09	89.6274
692.21	89.5712
692.33	89.5831
692.45	89.4039
692.57	89.4126
692.70	89.7037
692.82	89.9073
692.94	89.6605
693.06	89.7854
693.18	90.1820
693.30	89.7504
693.42	89.6810
693.54	89.8102
693.66	90.0097
693.78	89.8420
693.90	90.1605
694.02	90.4021
694.14	90.3553
694.26	89.9032
694.38	89.8432
694.50	89.9077
694.62	89.8509
694.74	89.7683
694.86	89.9028
694.98	89.8135
695.10	89.8185
695.22	89.6916
695.34	89.8209
695.46	89.8442
695.58	90.1281
695.71	90.1287
695.83	89.8882
695.95	90.0224
696.07	90.2286
696.19	90.3550
696.31	90.0882
696.43	90.3769
696.55	90.4141
696.67	90.3654
696.79	90.2776
696.91	90.1514
697.03	90.1940
697.15	90.2519
697.27	89.9643
697.39	89.9888
697.51	90.3209
697.63	89.9489
697.75	89.7271
697.87	90.0389
697.99	89.8842
698.11	89.8619
698.23	90.2226
698.35	90.3083
698.47	90.5356
698.59	90.4378
698.71	90.6593
698.83	90.7760
698.95	90.8116
699.07	90.5046
699.19	90.7857
699.31	90.5278
699.43	90.5142
699.55	90.5204
699.67	90.6548
699.79	90.6211
699.91	90.7362
700.03	90.6844
700.15	90.6177
700.27	90.7566
700.39	90.6061
700.51	90.5367
700.63	90.3271
700.75	90.4808
700.87	90.2379
700.99	90.5802
701.11	90.7071
701.24	90.7409
701.36	90.6535
701.48	90.9506
701.60	90.5650
701.72	90.6430
701.84	91.0512
701.96	90.9581
702.08	90.6139
702.20	90.8883
702.32	90.9697
702.44	90.9576
702.56	91.1189
702.68	90.9967
702.80	90.9315
702.92	90.9533
703.04	90.9322
703.16	91.1898
703.28	91.5615
703.40	91.5965
703.52	91.4177
703.64	91.2797
703.76	91.0703
703.88	91.0341
704.00	90.8580
704.12	90.9207
704.24	90.8459
704.36	90.8662
704.48	90.6744
704.60	90.8116
704.72	90.4871
704.84	90.5069
704.96	90.6016
705.07	90.8536
705.19	90.7627
705.31	91.1857
705.43	91.1288
705.55	90.9693
705.67	91.1007
705.79	91.3365
705.91	91.1309
706.03	91.1756
706.15	91.2933
706.27	91.0099
706.39	91.0202
706.51	91.1730
706.63	91.2716
706.75	91.1145
706.87	91.3024
706.99	91.5195
707.11	91.5499
707.23	91.5405
707.35	91.4942
707.47	91.2790
707.59	91.1177
707.71	91.0273
707.83	91.1621
707.95	91.0002
708.07	91.1224
708.19	91.4361
708.31	91.5518
708.43	91.4525
708.55	91.8766
708.67	91.9203
708.79	91.6269
708.91	91.4919
709.03	91.6621
709.15	91.5301
709.27	91.4925
709.39	91.3142
709.51	91.3327
709.63	91.4661
709.75	91.3850
709.87	91.4288
709.99	91.6557
710.11	91.9487
710.23	91.4049
710.35	91.4373
710.47	91.4685
710.58	91.2483
710.70	91.0681
710.82	91.4233
710.94	91.4902
711.06	91.6224
711.18	91.5315
711.30	91.3976
711.42	91.3235
711.54	91.6233
711.66	91.4419
711.78	91.3683
711.90	91.6708
712.02	92.0486
712.14	91.6060
712.26	91.4281
712.38	91.9048
712.50	91.9459
712.62	91.7647
712.74	91.6337
712.86	92.0317
712.98	92.0056
713.10	91.7017
713.22	91.5098
713.34	91.8108
713.45	91.7172
713.57	91.5447
713.69	91.6390
713.81	91.9196
713.93	92.3905
714.05	92.2133
714.17	92.1003
714.29	92.3829
714.41	92.1915
714.53	91.7896
714.65	92.1029
714.77	91.9295
714.89	91.7157
715.01	91.7494
715.13	91.7765
715.25	91.7905
715.37	92.0403
715.49	92.0632
715.61	91.8884
715.72	91.9990
715.84	91.9528
715.96	91.8350
716.08	91.7236
716.20	91.9574
716.32	91.8841
716.44	91.7787
716.56	91.6824
716.68	91.7365
716.80	91.8663
716.92	91.9372
717.04	92.0189
717.16	92.5192
717.28	92.4678
717.40	92.2734
717.52	92.2083
717.63	92.1770
717.75	92.0978
717.87	92.3536
717.99	92.1749
718.11	92.0526
718.23	91.9550
718.35	92.1018
718.47	91.9210
718.59	92.1619
718.71	92.1340
718.83	92.4712
718.95	92.2382
719.07	92.2892
719.19	92.2566
719.30	92.3534
719.42	92.0970
719.54	92.0869
719.66	92.3249
719.78	92.3189
719.90	92.4673
720.02	92.4408
720.14	92.5422
720.26	92.3973
720.38	92.7655
720.50	92.5749
720.62	92.9121
720.74	92.8287
720.85	92.4846
720.97	92.3345
721.09	92.3315
721.21	92.0911
721.33	92.2037
721.45	92.4400
721.57	92.6125
721.69	92.4346
721.81	92.1543
721.93	92.2398
722.05	92.5232
722.16	92.2495
722.28	92.3423
722.40	92.3598
722.52	92.5557
722.64	92.3475
722.76	92.2631
722.88	92.6984
723.00	92.9796
723.12	93.0720
723.24	92.8784
723.36	92.8394
723.47	92.6689
723.59	92.5580
723.71	92.3596
723.83	92.5807
723.95	92.4983
724.07	92.1155
724.19	92.3842
724.31	92.5630
724.43	92.7346
724.55	92.3527
724.66	92.8758
724.78	92.9216
724.90	92.5951
725.02	92.3545
725.14	93.2795
725.26	93.1826
725.38	92.9428
725.50	92.8892
725.62	93.1310
725.74	93.2329
725.85	93.3342
725.97	92.1172
726.09	92.4625
726.21	92.6421
726.33	92.4047
726.45	92.2954
726.57	93.6375
726.69	93.2631
726.81	92.9117
726.92	92.6597
727.04	92.6396
727.16	92.6304
727.28	92.8061
727.40	92.3886
727.52	92.2563
727.64	92.2407
727.76	92.4124
727.88	92.3941
727.99	92.8039
728.11	93.0685
728.23	93.2177
728.35	93.0425
728.47	92.9727
728.59	93.2197
728.71	93.2702
728.83	93.0209
728.94	92.8599
729.06	92.9638
729.18	92.8315
729.30	92.5933
729.42	92.5743
729.54	92.8444
729.66	92.6710
729.78	92.5308
729.90	92.9658
730.01	93.1029
730.13	93.1796
730.25	93.2199
730.37	93.4155
730.49	93.2112
730.61	93.1745
730.73	93.0722
730.84	93.1107
730.96	93.2419
731.08	93.3797
731.20	92.9170
731.32	93.0407
731.44	93.1860
731.56	92.8156
731.68	92.6354
731.79	93.2587
731.91	92.9636
732.03	92.9511
732.15	93.1592
732.27	93.0141
732.39	93.1537
732.51	93.5359
732.62	93.2453
732.74	93.2983
732.86	93.6391
732.98	93.4080
733.10	92.8677
733.22	93.3731
733.34	93.2342
733.45	93.1588
733.57	93.2040
733.69	93.5958
733.81	93.4958
733.93	93.5667
734.05	93.5200
734.17	93.5778
734.28	93.8506
734.40	93.8558
734.52	93.5520
734.64	93.6409
734.76	93.9023
734.88	93.5583
735.00	93.0927
735.11	93.5861
735.23	93.8084
735.35	93.2992
735.47	93.3853
735.59	93.7833
735.71	93.4879
735.83	93.1368
735.94	93.3137
736.06	93.2115
736.18	93.1711
736.30	93.6210
736.42	93.7797
736.54	93.2648
736.65	93.4060
736.77	93.5435
736.89	92.7037
737.01	92.9766
737.13	93.6924
737.25	93.5622
737.36	93.4040
737.48	94.0936
737.60	93.7732
737.72	93.3767
737.84	93.5571
737.96	93.4711
738.08	93.6151
738.19	93.5564
738.31	93.8962
738.43	93.7259
738.55	94.0385
738.67	93.8512
738.79	93.8227
738.90	93.9683
739.02	94.1883
739.14	93.8481
739.26	93.5769
739.38	93.8569
739.50	93.7513
739.61	93.6549
739.73	93.7479
739.85	93.7440
739.97	94.0176
740.09	93.9873
740.20	93.8760
740.32	94.3066
740.44	94.5947
740.56	94.2060
740.68	94.1989
740.80	94.0897
740.91	93.7137
741.03	93.7990
741.15	93.6219
741.27	93.6150
741.39	93.6067
741.51	93.7721
741.62	93.7843
741.74	94.0563
741.86	94.1267
741.98	94.4101
742.10	94.3476
742.21	94.4145
742.33	94.0134
742.45	94.0593
742.57	93.9353
742.69	94.0859
742.80	94.0670
742.92	94.5624
743.04	94.2003
743.16	94.5264
743.28	94.4766
743.40	94.5269
743.51	94.3973
743.63	94.7500
743.75	94.5453
743.87	94.4471
743.99	94.2859
744.10	94.4095
744.22	94.2026
744.34	93.9642
744.46	94.1779
744.58	93.8867
744.69	93.7304
744.81	94.2002
744.93	94.1674
745.05	93.7467
745.17	94.1266
745.28	94.1747
745.40	93.9414
745.52	94.1211
745.64	94.5405
745.76	94.7818
745.87	94.6344
745.99	94.7273
746.11	94.9122
746.23	94.9787
746.35	94.1577
746.46	94.1422
746.58	93.9679
746.70	93.8749
746.82	93.8507
746.94	94.5701
747.05	94.8748
747.17	95.1281
747.29	94.6394
747.41	94.8214
747.53	94.7434
747.64	94.4257
747.76	93.9900
747.88	94.5732
748.00	94.4996
748.12	94.5768
748.23	94.7101
748.35	94.9381
748.47	95.1004
748.59	95.0405
748.70	94.9557
748.82	95.0412
748.94	94.9751
749.06	94.9421
749.18	94.6387
749.29	94.6374
749.41	94.7798
749.53	94.8528
749.65	95.0223
749.76	95.3685
749.88	95.1639
750.00	94.8404
750.12	94.8373
750.24	94.6581
750.35	94.1928
750.47	94.4368
750.59	94.3730
750.71	94.8119
750.82	94.8939
750.94	95.2678
751.06	95.2968
751.18	95.6168
751.30	95.1821
751.41	95.1403
751.53	95.2441
751.65	94.9969
751.77	94.8125
751.88	95.2388
752.00	94.8448
752.12	94.7031
752.24	94.8625
752.35	94.8492
752.47	94.3211
752.59	94.8878
752.71	94.5935
752.83	94.8795
752.94	94.9825
753.06	95.2001
753.18	95.0372
753.30	95.4205
753.41	95.1667
753.53	95.2196
753.65	95.5060
753.77	95.5096
753.88	95.3467
754.00	95.1723
754.12	95.4288
754.24	95.7395
754.35	95.4994
754.47	95.5454
754.59	95.9188
754.71	95.8680
754.82	95.1810
754.94	95.4297
755.06	95.4637
755.18	95.4594
755.29	95.1920
755.41	95.4318
755.53	95.4236
755.65	95.4567
755.76	94.9264
755.88	94.9795
756.00	95.2313
756.12	95.1691
756.23	94.7173
756.35	95.1215
756.47	95.4973
756.59	95.2133
756.70	95.4609
756.82	95.8341
756.94	95.8319
757.06	95.7041
757.17	95.9924
757.29	95.6280
757.41	95.7555
757.53	95.7267
757.64	95.4315
757.76	95.0992
757.88	95.2420
758.00	95.4797
758.11	95.3965
758.23	95.5408
758.35	95.4302
758.47	95.4716
758.58	95.2005
758.70	95.5005
758.82	95.3132
758.94	95.6946
759.05	95.7591
759.17	95.4483
759.29	95.3062
759.40	95.6221
759.52	95.3227
759.64	95.1195
759.76	95.5450
759.87	95.6905
759.99	95.9520
760.11	96.1388
760.23	96.2246
760.34	96.2011
760.46	96.1102
760.58	95.5996
760.70	95.5192
760.81	95.5824
760.93	95.6683
761.05	95.9810
761.16	96.2975
761.28	96.5408
761.40	96.1638
761.52	95.9316
761.63	95.6623
761.75	95.6817
761.87	95.5448
761.98	96.0760
762.10	96.1709
762.22	96.5062
762.34	96.2935
762.45	95.6767
762.57	95.7412
762.69	95.6899
762.81	95.7099
762.92	95.6911
763.04	95.8711
763.16	95.7498
763.27	95.7556
763.39	95.1733
763.51	95.2915
763.63	95.9418
763.74	95.8794
763.86	95.9806
763.98	95.9242
764.09	96.0487
764.21	95.7378
764.33	95.7482
764.44	95.6517
764.56	95.8824
764.68	95.9333
764.80	95.4831
764.91	95.4948
765.03	95.5888
765.15	95.8138
765.26	95.3594
765.38	95.8417
765.50	95.7919
765.62	95.7217
765.73	95.7689
765.85	95.9382
765.97	96.1059
766.08	96.2741
766.20	96.2846
766.32	95.8315
766.43	95.9556
766.55	95.8576
766.67	95.8427
766.79	96.0559
766.90	96.4750
767.02	96.6976
767.14	95.9213
767.25	95.8212
767.37	95.7483
767.49	95.2917
767.60	94.9073
767.72	95.7310
767.84	95.9880
767.95	95.8739
768.07	96.1270
768.19	96.3682
768.31	96.4012
768.42	96.2115
768.54	95.9532
768.66	95.9027
768.77	96.1017
768.89	96.0034
769.01	95.7536
769.12	96.0231
769.24	96.1882
769.36	96.0376
769.47	95.7276
769.59	95.8460
769.71	95.8879
769.82	96.0806
769.94	95.7987
770.06	96.1930
770.17	96.1744
770.29	95.8748
770.41	95.7964
770.53	95.9901
770.64	95.7653
770.76	95.7279
770.88	96.4541
770.99	96.3698
771.11	96.4754
771.23	96.3149
771.34	96.2037
771.46	95.8398
771.58	95.7699
771.69	95.5445
771.81	96.1292
771.93	96.0173
772.04	96.0035
772.16	95.8398
772.28	95.9917
772.39	95.5175
772.51	96.0778
772.63	96.1731
772.74	95.7229
772.86	95.9921
772.98	96.3199
773.09	96.1364
773.21	96.0588
773.33	96.9210
773.44	96.4768
773.56	96.0819
773.68	96.2539
773.79	96.2894
773.91	96.2123
774.03	96.1303
774.14	96.6159
774.26	96.8902
774.38	96.7716
774.49	96.4326
774.61	96.6750
774.73	96.4876
774.84	95.9671
774.96	96.1670
775.08	96.3009
775.19	96.2383
775.31	96.3304
775.43	96.6486
775.54	96.1210
775.66	96.4966
775.77	96.3369
775.89	96.0364
776.01	95.8279
776.12	96.5922
776.24	96.4430
776.36	96.3342
776.47	96.2457
776.59	96.4687
776.71	96.3186
776.82	96.2006
776.94	96.3091
777.06	96.8674
777.17	97.0203
777.29	96.7611
777.41	96.7760
777.52	96.7030
777.64	96.8534
777.75	96.6694
777.87	96.4043
777.99	96.2209
778.10	96.5272
778.22	96.2362
778.34	95.9555
778.45	96.3059
778.57	96.5064
778.69	96.0338
778.80	96.0526
778.92	96.3801
779.04	96.3378
779.15	96.1253
779.27	96.3434
779.38	96.4918
779.50	96.3880
779.62	96.8405
779.73	96.4369
779.85	96.8059
779.97	96.9067
780.08	96.5325
780.20	95.9483
780.31	96.5482
780.43	96.6334
780.55	96.1034
780.66	95.9257
780.78	96.4938
780.90	96.7440
781.01	96.6637
781.13	96.4053
781.25	97.0423
781.36	96.7488
781.48	96.0178
781.59	95.7129
781.71	96.4592
781.83	96.7101
781.94	96.1398
782.06	96.5993
782.18	97.4153
782.29	96.9132
782.41	96.4236
782.52	97.0981
782.64	97.3930
782.76	97.4944
782.87	97.2852
782.99	96.7165
783.10	96.8869
783.22	96.6754
783.34	95.8999
783.45	96.4155
783.57	96.7757
783.69	95.9914
783.80	95.7362
783.92	95.9336
784.03	95.7783
784.15	96.1400
784.27	96.5964
784.38	96.6872
784.50	96.8009
784.61	97.0429
784.73	97.2305
784.85	96.9214
784.96	96.8829
785.08	96.6937
785.19	96.8228
785.31	96.7023
785.43	96.5570
785.54	96.5107
785.66	96.2401
785.77	96.3714
785.89	96.2364
786.01	96.6475
786.12	96.4777
786.24	96.7207
786.35	96.4606
786.47	96.7857
786.59	96.7527
786.70	97.2576
786.82	97.2390
786.93	97.1552
787.05	96.9947
787.17	97.2532
787.28	96.9413
787.40	96.8759
787.51	97.2037
787.63	96.8204
787.75	96.3307
787.86	96.5679
787.98	96.8037
788.09	96.2290
788.21	96.4513
788.33	97.2398
788.44	97.0252
788.56	97.2087
788.67	97.3390
788.79	97.5596
788.91	97.4093
789.02	96.9342
789.14	96.3797
789.25	96.5703
789.37	96.2691
789.48	96.1888
789.60	96.5627
789.72	96.4933
789.83	96.8510
789.95	97.3440
790.06	96.7379
790.18	96.7889
790.30	97.0202
790.41	96.6231
790.53	96.4077
790.64	96.6959
790.76	96.8668
790.87	96.7553
790.99	96.6967
791.11	96.6487
791.22	96.4440
791.34	96.3775
791.45	96.6712
791.57	96.9396
791.68	96.4449
791.80	96.6435
791.92	96.9258
792.03	96.9336
792.15	96.7535
792.26	96.8596
792.38	96.7825
792.49	96.7055
792.61	96.8381
792.73	97.3646
792.84	99.2745
792.96	94.4524
793.07	94.8834
793.19	95.7400
793.30	95.8881
793.42	94.8145
793.54	98.7670
793.65	98.4202
793.77	97.7473
793.88	96.8938
794.00	96.3813
794.11	96.9815
794.23	97.0876
794.34	97.1718
794.46	96.3152
794.58	95.7984
794.69	96.8266
794.81	97.0895
794.92	95.7434
795.04	96.3434
795.15	96.7154
795.27	96.4647
795.39	96.1262
795.50	97.1958
795.62	97.6831
795.73	97.7865
795.85	97.0661
795.96	97.2810
796.08	97.2714
796.19	97.4171
796.31	97.4868
796.42	97.5785
796.54	97.6233
796.66	98.0193
796.77	97.1600
796.89	97.5786
797.00	98.0139
797.12	97.2450
797.23	96.4596
797.35	96.8495
797.46	96.2355
797.58	96.2975
797.69	96.6714
797.81	97.0902
797.93	97.3904
798.04	97.1462
798.16	97.2656
798.27	97.4096
798.39	97.5191
798.50	97.6321
798.62	97.3373
798.73	97.2405
798.85	97.1171
798.96	96.4504
799.08	96.1669
799.19	96.9489
799.31	97.2755
799.43	97.2156
799.54	97.0747
799.66	97.3092
799.77	97.9271
799.89	97.4946
800.00	96.9189
800.12	96.9111
800.23	97.2595
800.35	96.9203
800.46	96.4325
800.58	96.7949
800.69	97.2841
800.81	96.3071
800.92	96.2180
801.04	96.9772
801.16	97.2964
801.27	97.2641
801.39	97.7792
801.50	97.0936
801.62	96.5042
801.73	96.9415
801.85	96.9136
801.96	96.5964
802.08	97.7464
802.19	98.2675
802.31	97.2766
802.42	97.1908
802.54	97.9828
802.65	97.0779
802.77	97.6252
802.88	97.5484
803.00	98.0893
803.11	97.9537
803.23	98.0858
803.34	97.6873
803.46	97.8099
803.57	97.8455
803.69	97.1482
803.80	97.4253
803.92	97.1421
804.03	97.3245
804.15	96.8441
804.26	97.6972
804.38	97.4174
804.50	97.1240
804.61	97.1494
804.73	97.8280
804.84	97.3324
804.96	97.4656
805.07	97.5467
805.19	97.4460
805.30	96.9985
805.42	97.0066
805.53	97.1521
805.65	97.5376
805.76	97.5929
805.88	97.2420
805.99	97.3683
806.11	97.1216
806.22	96.8558
806.34	97.1190
806.45	96.8960
806.57	97.1325
806.68	96.9238
806.80	96.6665
806.91	96.9395
807.03	97.5816
807.14	97.4030
807.26	97.2376
807.37	97.9454
807.49	97.3814
807.60	96.6853
807.72	96.8753
807.83	97.5652
807.95	97.1684
808.06	97.0601
808.17	97.8755
808.29	97.4908
808.40	96.9707
808.52	96.6233
808.63	97.1622
808.75	96.5676
808.86	96.6483
808.98	96.7048
809.09	97.1998
809.21	96.8483
809.32	97.8310
809.44	97.5950
809.55	98.1144
809.67	97.4790
809.78	96.9772
809.90	96.5250
810.01	95.9650
810.13	96.0053
810.24	96.8493
810.36	97.5763
810.47	97.0310
810.59	97.0759
810.70	97.0893
810.82	96.9544
810.93	97.0766
811.05	97.6500
811.16	98.0751
811.27	96.8608
811.39	97.1402
811.50	97.9899
811.62	97.4439
811.73	97.4558
811.85	98.1742
811.96	97.7460
812.08	96.9501
812.19	97.4096
812.31	98.2218
812.42	98.2578
812.54	97.7574
812.65	97.5559
812.77	97.3517
812.88	96.8155
813.00	97.6673
813.11	98.5122
813.22	99.1173
813.34	98.5425
813.45	97.9156
813.57	97.8828
813.68	98.5283
813.80	98.6278
813.91	98.1372
814.03	99.2099
814.14	98.3606
814.26	97.0274
814.37	96.7533
814.49	97.8467
814.60	96.9997
814.71	97.5794
814.83	97.8317
814.94	97.0990
815.06	97.6847
815.17	98.9512
815.29	97.2129
815.40	97.5140
815.52	98.5403
815.63	97.6780
815.75	97.7189
815.86	98.9821
815.97	98.2684
816.09	97.3873
816.20	99.1137
816.32	98.2142
816.43	98.7634
816.55	97.7904
816.66	98.5272
816.78	97.4043
816.89	98.0500
817.00	98.2033
817.12	98.5854
817.23	97.9988
817.35	98.7435
817.46	96.6070
817.58	96.4625
817.69	97.5459
817.81	97.5738
817.92	96.4146
818.03	98.8648
818.15	99.0651
818.26	99.0066
818.38	104.8328
818.49	112.8220
818.61	94.7215
818.72	98.0212
818.83	106.8167
818.95	102.7288
819.06	93.8640
819.18	112.9724
819.29	108.9944
819.41	99.7551
819.52	98.2916
819.64	100.2887
819.75	100.0914
819.86	98.5736
819.98	98.9936
820.09	99.8284
820.21	97.4479
820.32	95.3729
820.44	98.1714
820.55	97.7293
820.66	96.9863
820.78	97.6984
820.89	99.9138
821.01	98.4243
821.12	100.4986
821.23	97.7793
821.35	97.4032
821.46	98.7934
821.58	99.9908
821.69	96.5341
821.81	98.2235
821.92	97.5494
822.03	97.9602
822.15	97.8623
822.26	98.2011
822.38	98.4329
822.49	99.5002
822.61	96.5477
822.72	95.9184
822.83	99.3951
822.95	98.8253
823.06	97.2557
823.18	98.1550
823.29	99.6144
823.40	101.8674
823.52	97.7067
823.63	99.9916
823.75	104.3403
823.86	99.6714
823.97	98.2552
824.09	103.8238
824.20	105.5095
824.32	101.6497
824.43	100.3815
824.55	100.5834
824.66	102.1945
824.77	97.3937
824.89	98.2732
825.00	101.5236
825.12	100.8494
825.23	102.2744
825.34	101.0985
825.46	100.3592
825.57	106.3408
825.69	103.4833
825.80	102.9796
825.91	104.1189
826.03	107.1702
826.14	101.3518
826.26	102.4535
826.37	99.6044
826.48	108.7948
826.60	105.0346
826.71	105.8343
826.83	97.9448
826.94	95.2481
827.05	93.8020
827.17	96.8644
827.28	101.4405
827.39	107.2051
827.51	110.9383
827.62	108.7611
827.74	114.9091
827.85	113.1860
827.96	96.9905
828.08	108.7646
828.19	141.2714
828.31	122.5528
828.42	108.8119
828.53	123.7387
828.65	31.3841
828.76	0.0000
828.87	0.0000
828.99	0.0000
