Wavelength (nm)	Reflectance (%)
377.35	0.0000
377.48	0.0000
377.62	0.0000
377.75	0.0000
377.88	0.0000
378.02	57.2381
378.15	200.0000
378.28	200.0000
378.41	0.0000
378.55	200.0000
378.68	130.1000
378.81	200.0000
378.95	200.0000
379.08	200.0000
379.21	200.0000
379.35	200.0000
379.48	200.0000
379.61	176.9931
379.74	94.5929
379.88	2.2439
380.01	30.8763
380.14	58.0410
380.28	12.0839
380.41	3.5200
380.54	88.5531
380.68	83.4315
380.81	33.3003
380.94	13.7010
381.07	42.5449
381.21	49.3525
381.34	0.0000
381.47	15.1787
381.61	81.6341
381.74	63.3333
381.87	0.0000
382.00	50.4238
382.14	75.1201
382.27	10.4236
382.40	0.0000
382.54	43.6800
382.67	52.5251
382.80	16.6256
382.93	39.0035
383.07	48.5993
383.20	41.1465
383.33	62.5174
383.47	20.2981
383.60	17.3519
383.73	45.7901
383.86	43.7811
384.00	2.9477
384.13	43.1358
384.26	55.0444
384.40	25.2420
384.53	9.2922
384.66	26.3058
384.79	43.5846
384.93	33.4777
385.06	11.7829
385.19	16.1348
385.33	19.7704
385.46	0.0000
385.59	11.8014
385.72	48.8321
385.86	39.9449
385.99	39.3786
386.12	39.3541
386.25	11.0837
386.39	17.3564
386.52	33.0923
386.65	25.2089
386.79	4.3506
386.92	37.1222
387.05	44.7363
387.18	19.8006
387.32	12.3202
387.45	52.2874
387.58	43.4145
387.71	26.1854
387.85	32.7978
387.98	32.3252
388.11	31.0360
388.25	16.2366
388.38	5.5052
388.51	14.5269
388.64	37.0419
388.78	38.1123
388.91	11.6738
389.04	33.3131
389.17	28.0842
389.31	0.0000
389.44	0.0000
389.57	21.6390
389.70	19.9103
389.84	26.6682
389.97	30.1030
390.10	36.3787
390.24	37.7788
390.37	15.9311
390.50	12.5819
390.63	18.7104
390.77	11.1937
390.90	13.6300
391.03	30.8950
391.16	23.9146
391.30	27.1762
391.43	42.4801
391.56	20.1407
391.69	23.2657
391.83	40.9700
391.96	18.4995
392.09	8.4039
392.22	38.3396
392.36	41.1348
392.49	11.6143
392.62	15.5590
392.75	26.1509
392.89	20.1307
393.02	24.7204
393.15	12.7059
393.28	36.1438
393.42	26.1815
393.55	25.9829
393.68	13.8047
393.81	37.8393
393.95	36.9567
394.08	32.7759
394.21	23.8466
394.34	23.8680
394.48	26.7491
394.61	16.8124
394.74	22.9649
394.87	21.4055
395.01	39.4246
395.14	23.8480
395.27	10.9408
395.40	19.9289
395.54	26.0122
395.67	2.3597
395.80	16.2362
395.93	32.2708
396.07	31.8895
396.20	28.4538
396.33	32.6530
396.46	35.4914
396.59	41.3113
396.73	21.9965
396.86	18.8501
396.99	35.5513
397.12	50.1298
397.26	0.0750
397.39	5.8621
397.52	25.4816
397.65	18.5118
397.79	0.0000
397.92	34.9423
398.05	47.1544
398.18	24.6314
398.32	13.3758
398.45	19.4118
398.58	25.2436
398.71	17.0725
398.84	15.7585
398.98	16.2941
399.11	23.4516
399.24	18.3223
399.37	18.6774
399.51	23.9935
399.64	25.4244
399.77	23.1543
399.90	28.9563
400.03	19.7117
400.17	14.0455
400.30	15.4689
400.43	15.5737
400.56	8.0604
400.70	21.5120
400.83	26.5440
400.96	27.5156
401.09	20.4074
401.23	23.1605
401.36	18.6607
401.49	19.8240
401.62	24.4006
401.75	32.0819
401.89	24.7159
402.02	22.6366
402.15	22.1289
402.28	22.7721
402.41	26.1168
402.55	17.9832
402.68	15.6074
402.81	21.7833
402.94	23.4425
403.08	13.6514
403.21	19.5076
403.34	30.6280
403.47	22.2972
403.60	11.4474
403.74	19.4540
403.87	22.6569
404.00	20.6609
404.13	27.0174
404.26	26.1801
404.40	22.9358
404.53	29.6308
404.66	18.1679
404.79	13.4692
404.93	27.9773
405.06	25.9063
405.19	15.6642
405.32	18.7833
405.45	26.0360
405.59	27.1278
405.72	6.1287
405.85	17.5504
405.98	29.0610
406.11	23.2145
406.25	7.3237
406.38	27.8401
406.51	24.3716
406.64	19.2234
406.77	14.2493
406.91	21.1836
407.04	23.3428
407.17	23.3391
407.30	13.3501
407.43	12.9151
407.57	19.8775
407.70	21.7290
407.83	24.0982
407.96	19.6808
408.09	29.5412
408.23	30.0743
408.36	14.2618
408.49	8.8398
408.62	27.7473
408.75	21.8655
408.89	16.7395
409.02	22.5501
409.15	22.8331
409.28	26.7760
409.41	15.0773
409.55	14.1106
409.68	28.9236
409.81	24.6419
409.94	13.4678
410.07	28.9968
410.20	28.3285
410.34	19.0667
410.47	17.9163
410.60	23.0281
410.73	18.7516
410.86	21.0929
411.00	21.3494
411.13	25.2182
411.26	18.4788
411.39	20.5398
411.52	18.7275
411.66	22.4562
411.79	21.1926
411.92	26.9063
412.05	26.7215
412.18	21.3921
412.31	15.2481
412.45	25.0689
412.58	22.6600
412.71	14.8367
412.84	22.7660
412.97	29.3919
413.11	19.6998
413.24	8.5573
413.37	18.2663
413.50	20.2247
413.63	12.8059
413.76	12.4827
413.90	25.3218
414.03	23.2342
414.16	20.8630
414.29	14.5771
414.42	20.8618
414.56	18.9937
414.69	19.1972
414.82	15.0935
414.95	22.8625
415.08	15.4060
415.21	24.9723
415.35	18.9706
415.48	13.9245
415.61	25.5203
415.74	31.7841
415.87	8.7964
416.00	15.8158
416.14	28.2913
416.27	19.2278
416.40	13.2370
416.53	25.6650
416.66	28.3137
416.79	19.8079
416.93	19.3615
417.06	21.4311
417.19	23.2587
417.32	24.9112
417.45	20.4902
417.58	22.6617
417.72	23.9368
417.85	18.8738
417.98	15.4288
418.11	22.6613
418.24	20.1059
418.37	18.7608
418.51	14.5870
418.64	12.7627
418.77	17.8209
418.90	17.4607
419.03	12.9397
419.16	24.1216
419.29	31.9293
419.43	16.4228
419.56	15.7437
419.69	25.8995
419.82	23.7381
419.95	15.6407
420.08	18.0047
420.22	18.0685
420.35	15.4428
420.48	19.2561
420.61	16.3230
420.74	26.5446
420.87	31.4866
421.00	26.3253
421.14	16.7967
421.27	20.8886
421.40	19.3846
421.53	16.4857
421.66	19.2444
421.79	23.0455
421.93	26.2683
422.06	21.8369
422.19	18.4744
422.32	18.6900
422.45	22.6241
422.58	16.8069
422.71	14.8620
422.85	20.9449
422.98	23.1580
423.11	19.8254
423.24	22.4426
423.37	24.0258
423.50	20.9738
423.63	20.3062
423.77	18.1073
423.90	13.8165
424.03	15.5526
424.16	19.2789
424.29	18.6186
424.42	22.0672
424.55	22.6638
424.69	22.0646
424.82	21.9137
424.95	17.2296
425.08	17.2011
425.21	19.3534
425.34	18.3092
425.47	17.8043
425.60	21.3066
425.74	18.5027
425.87	16.9322
426.00	20.0529
426.13	18.0305
426.26	18.6983
426.39	15.3876
426.52	17.8807
426.66	23.6790
426.79	16.2679
426.92	12.0127
427.05	19.3467
427.18	20.2189
427.31	15.9975
427.44	21.1003
427.57	27.1845
427.71	25.6699
427.84	19.6947
427.97	16.2760
428.10	20.5994
428.23	26.5401
428.36	16.5514
428.49	14.4661
428.62	17.3764
428.76	20.4566
428.89	13.2777
429.02	14.8925
429.15	23.8070
429.28	23.8197
429.41	19.4437
429.54	15.3290
429.67	22.8120
429.81	22.4324
429.94	18.1297
430.07	11.9907
430.20	17.2472
430.33	17.8916
430.46	14.6693
430.59	19.4856
430.72	23.8288
430.85	23.4054
430.99	19.2702
431.12	16.9254
431.25	17.1318
431.38	20.1331
431.51	13.9363
431.64	13.1479
431.77	17.3703
431.90	18.3597
432.03	15.2173
432.17	18.2578
432.30	23.0868
432.43	22.0247
432.56	18.2661
432.69	15.4988
432.82	16.6181
432.95	15.5003
433.08	15.7853
433.21	16.1204
433.35	21.0912
433.48	20.3374
433.61	21.2224
433.74	18.8654
433.87	20.6923
434.00	19.2981
434.13	19.0932
434.26	16.7699
434.39	19.8896
434.53	19.3635
434.66	20.8403
434.79	17.6283
434.92	21.2084
435.05	21.0340
435.18	16.6286
435.31	14.6464
435.44	19.5961
435.57	20.9101
435.70	18.1643
435.84	15.0272
435.97	17.9433
436.10	19.9218
436.23	16.9436
436.36	18.9137
436.49	25.5302
436.62	21.2544
436.75	17.8918
436.88	18.2720
437.01	21.2494
437.14	21.7671
437.28	19.6190
437.41	18.0932
437.54	20.6853
437.67	22.9211
437.80	14.1306
437.93	15.4169
438.06	21.2490
438.19	20.9450
438.32	15.5996
438.45	19.9981
438.58	21.9234
438.72	20.9881
438.85	18.9888
438.98	17.5702
439.11	19.3370
439.24	20.2309
439.37	15.0856
439.50	15.4047
439.63	19.0487
439.76	21.3043
439.89	20.1990
440.02	18.8555
440.15	18.7727
440.29	20.2979
440.42	17.0628
440.55	12.5371
440.68	18.5586
440.81	19.9158
440.94	12.7494
441.07	14.2289
441.20	21.0924
441.33	18.9707
441.46	16.7401
441.59	20.7581
441.72	21.6740
441.85	19.8189
441.99	17.0821
442.12	16.8066
442.25	16.3643
442.38	18.6950
442.51	17.8882
442.64	18.8734
442.77	19.9836
442.90	21.1437
443.03	18.3243
443.16	16.4632
443.29	18.9352
443.42	17.5683
443.55	18.5570
443.68	18.7770
443.82	21.3939
443.95	19.1791
444.08	20.5674
444.21	18.8632
444.34	18.9048
444.47	18.7234
444.60	20.4562
444.73	16.8790
444.86	16.2408
444.99	16.9045
445.12	17.5619
445.25	15.3069
445.38	16.7485
445.51	19.2532
445.64	23.1099
445.78	17.3016
445.91	17.0637
446.04	21.8546
446.17	18.4452
446.30	12.8163
446.43	19.6484
446.56	22.8175
446.69	17.2595
446.82	16.8151
446.95	18.9700
447.08	19.0793
447.21	16.5154
447.34	17.6680
447.47	20.1717
447.60	17.5911
447.73	16.3806
447.86	17.7179
447.99	17.3573
448.13	17.9142
448.26	18.4640
448.39	16.9126
448.52	17.1953
448.65	18.7747
448.78	16.4105
448.91	18.9298
449.04	19.1694
449.17	18.3843
449.30	18.5175
449.43	17.0616
449.56	16.2174
449.69	20.0713
449.82	17.9346
449.95	16.1189
450.08	19.3839
450.21	19.8351
450.34	15.6506
450.47	17.9802
450.60	20.0356
450.73	20.5250
450.87	19.2098
451.00	15.3123
451.13	17.7224
451.26	17.1290
451.39	16.2291
451.52	17.1614
451.65	22.9313
451.78	22.9323
451.91	20.1280
452.04	17.7574
452.17	19.4921
452.30	19.6399
452.43	15.5990
452.56	19.5828
452.69	19.2641
452.82	17.6395
452.95	18.6108
453.08	18.1845
453.21	18.3284
453.34	20.1108
453.47	16.9628
453.60	15.4103
453.73	18.0308
453.86	16.3783
453.99	17.0363
454.12	18.6644
454.25	18.9830
454.38	17.8429
454.52	17.7099
454.65	18.3285
454.78	18.3334
454.91	18.0731
455.04	19.1618
455.17	16.5353
455.30	16.2172
455.43	19.2886
455.56	17.1613
455.69	15.6403
455.82	19.3265
455.95	19.1173
456.08	17.2527
456.21	19.8250
456.34	19.9483
456.47	19.3108
456.60	19.0779
456.73	17.2885
456.86	17.4782
456.99	19.0041
457.12	16.9763
457.25	16.1476
457.38	17.3860
457.51	16.8322
457.64	16.2025
457.77	18.4553
457.90	19.5470
458.03	19.1833
458.16	18.4034
458.29	19.1808
458.42	19.3432
458.55	19.9131
458.68	18.8761
458.81	16.1726
458.94	18.0719
459.07	19.8828
459.20	18.1108
459.33	17.6175
459.46	20.4345
459.59	20.0036
459.72	15.9167
459.85	16.3895
459.98	18.8248
460.11	20.7729
460.24	16.7316
460.37	17.7989
460.50	18.8240
460.63	18.8512
460.76	16.3832
460.89	17.5423
461.02	18.9088
461.15	18.8397
461.28	15.8613
461.41	17.8014
461.54	19.0463
461.67	17.0333
461.80	16.4238
461.93	17.9662
462.06	17.6487
462.19	17.9629
462.32	18.0429
462.45	18.2304
462.58	18.4630
462.71	18.4526
462.84	17.2996
462.97	17.7284
463.10	16.4348
463.23	16.6807
463.36	17.1492
463.49	16.3760
463.62	16.5546
463.75	17.9590
463.88	19.7091
464.01	15.9557
464.14	17.7157
464.27	18.9752
464.40	18.2250
464.53	16.6478
464.66	18.4421
464.79	18.6246
464.92	17.6473
465.05	18.0622
465.18	18.1910
465.31	19.6276
465.44	19.3427
465.57	16.7833
465.70	17.2367
465.83	18.9079
465.96	16.8278
466.09	15.7490
466.22	19.0358
466.35	19.1424
466.48	17.8581
466.61	18.3445
466.74	18.2075
466.87	17.3032
467.00	16.0437
467.13	16.8030
467.26	18.4067
467.39	19.1453
467.52	17.6715
467.65	19.0165
467.78	18.0244
467.91	17.1395
468.04	17.0207
468.17	19.3733
468.30	19.2170
468.43	18.2633
468.56	17.0222
468.69	18.0061
468.82	17.5580
468.95	17.6491
469.08	18.7067
469.21	18.3108
469.34	16.4808
469.47	17.0086
469.60	16.6409
469.73	15.6167
469.86	18.0711
469.99	19.4751
470.11	17.8244
470.24	17.5768
470.37	19.0915
470.50	18.7667
470.63	17.8542
470.76	16.8421
470.89	18.3948
471.02	18.7957
471.15	16.4010
471.28	16.3904
471.41	18.8055
471.54	18.9171
471.67	16.9287
471.80	18.0651
471.93	18.9534
472.06	19.5287
472.19	16.5234
472.32	16.9628
472.45	17.8587
472.58	17.6289
472.71	17.1211
472.84	19.1760
472.97	18.5626
473.10	19.3383
473.23	18.3241
473.36	17.2893
473.49	16.7852
473.62	17.2450
473.74	16.7670
473.87	18.2909
474.00	18.3288
474.13	17.6485
474.26	18.5537
474.39	18.1935
474.52	17.2687
474.65	18.8116
474.78	19.5533
474.91	17.5122
475.04	17.4199
475.17	17.9612
475.30	16.2200
475.43	16.2846
475.56	17.8777
475.69	18.6233
475.82	17.7899
475.95	18.8605
476.08	18.6863
476.21	18.6653
476.34	16.9499
476.46	17.9412
476.59	17.8103
476.72	18.5830
476.85	17.5904
476.98	18.0246
477.11	18.3232
477.24	17.9599
477.37	16.5899
477.50	17.8574
477.63	18.8029
477.76	18.2769
477.89	17.9913
478.02	18.7438
478.15	18.4427
478.28	18.3187
478.41	17.5720
478.54	18.0667
478.66	18.1791
478.79	18.3332
478.92	17.5853
479.05	18.2818
479.18	18.0806
479.31	18.1022
479.44	18.1857
479.57	18.4182
479.70	18.9543
479.83	19.5200
479.96	18.2630
480.09	17.6632
480.22	17.9656
480.35	17.5343
480.48	17.4694
480.60	18.1033
480.73	18.7547
480.86	18.8430
480.99	18.7143
481.12	17.6418
481.25	18.5123
481.38	18.6746
481.51	18.2610
481.64	18.4434
481.77	19.3719
481.90	19.3351
482.03	18.6329
482.16	19.0209
482.29	18.9227
482.41	19.3311
482.54	19.1308
482.67	19.2630
482.80	19.9229
482.93	19.3743
483.06	18.7278
483.19	19.1363
483.32	19.8405
483.45	18.8950
483.58	19.1743
483.71	19.2220
483.84	18.8506
483.97	18.6763
484.09	18.9363
484.22	19.4926
484.35	19.7096
484.48	19.6515
484.61	19.5490
484.74	19.9404
484.87	19.4622
485.00	19.8730
485.13	19.9778
485.26	20.3472
485.39	19.5734
485.52	19.6927
485.64	19.0599
485.77	19.6622
485.90	19.2975
486.03	20.1447
486.16	20.3762
486.29	20.5063
486.42	20.1974
486.55	20.0354
486.68	19.6930
486.81	19.9667
486.94	19.9228
487.06	19.7196
487.19	20.2610
487.32	20.6011
487.45	20.4356
487.58	21.1503
487.71	21.0214
487.84	20.3792
487.97	20.3442
488.10	20.7535
488.23	20.1971
488.35	20.7823
488.48	21.4775
488.61	21.7557
488.74	21.5956
488.87	21.3328
489.00	21.2608
489.13	21.4989
489.26	21.2959
489.39	21.2541
489.52	21.9282
489.64	21.8781
489.77	21.9111
489.90	22.0746
490.03	22.3057
490.16	22.4595
490.29	22.4000
490.42	22.5307
490.55	22.5949
490.68	23.1036
490.81	22.5715
490.93	22.8493
491.06	22.7324
491.19	22.3486
491.32	22.3082
491.45	22.9125
491.58	23.2060
491.71	23.7070
491.84	23.7802
491.97	23.4422
492.09	23.7290
492.22	23.3218
492.35	23.1691
492.48	23.9086
492.61	23.8446
492.74	23.6156
492.87	24.2419
493.00	24.0978
493.12	23.8189
493.25	24.3189
493.38	24.9657
493.51	24.8080
493.64	24.8869
493.77	25.2538
493.90	24.8579
494.03	24.2641
494.16	24.8168
494.28	25.5601
494.41	24.8853
494.54	24.9770
494.67	25.8695
494.80	25.5569
494.93	25.1380
495.06	26.0303
495.19	26.6914
495.31	26.5942
495.44	26.4947
495.57	26.7557
495.70	27.2151
495.83	27.2873
495.96	26.7416
496.09	26.6511
496.22	27.2298
496.34	27.0539
496.47	26.7602
496.60	27.0192
496.73	27.8824
496.86	27.3466
496.99	27.7155
497.12	27.9609
497.24	28.2079
497.37	28.2907
497.50	28.8083
497.63	28.0493
497.76	27.9570
497.89	29.0093
498.02	29.0866
498.15	28.7580
498.27	29.1530
498.40	29.6474
498.53	28.9327
498.66	29.3425
498.79	29.6383
498.92	30.1301
499.05	30.4427
499.17	30.2194
499.30	29.9464
499.43	30.7353
499.56	30.6774
499.69	30.7628
499.82	31.7409
499.95	32.1863
500.07	31.9264
500.20	31.5371
500.33	31.9245
500.46	32.1638
500.59	32.0808
500.72	32.0064
500.85	32.6754
500.97	33.0572
501.10	32.9784
501.23	32.7135
501.36	33.0196
501.49	33.5156
501.62	32.8348
501.75	33.2899
501.87	33.7060
502.00	33.6178
502.13	33.7291
502.26	34.1981
502.39	34.2519
502.52	34.6258
502.64	34.6654
502.77	34.7177
502.90	35.2193
503.03	35.3447
503.16	35.1320
503.29	35.6827
503.42	36.0490
503.54	36.0352
503.67	35.5812
503.80	36.5176
503.93	36.8302
504.06	36.4865
504.19	36.6433
504.31	37.1131
504.44	36.7518
504.57	37.1166
504.70	37.5229
504.83	37.7770
504.96	38.1791
505.08	37.9453
505.21	37.7610
505.34	38.2201
505.47	38.3244
505.60	38.5046
505.73	38.5289
505.85	39.0123
505.98	39.4548
506.11	39.7793
506.24	39.8463
506.37	40.3784
506.50	40.4523
506.62	40.3406
506.75	39.9962
506.88	40.2660
507.01	40.5923
507.14	40.5908
507.27	40.6657
507.39	41.1277
507.52	40.8784
507.65	41.4937
507.78	41.4525
507.91	41.3349
508.04	41.4612
508.16	41.9271
508.29	42.0669
508.42	42.6234
508.55	42.4971
508.68	42.8381
508.81	43.1765
508.93	42.9454
509.06	42.8351
509.19	43.5031
509.32	43.4003
509.45	43.5055
509.57	43.6724
509.70	44.0284
509.83	44.1162
509.96	44.3412
510.09	44.4310
510.22	44.8277
510.34	44.3602
510.47	44.6334
510.60	44.7929
510.73	44.9617
510.86	45.1548
510.98	45.5901
511.11	45.5257
511.24	45.8353
511.37	45.8528
511.50	45.7391
511.63	46.0589
511.75	46.1967
511.88	46.1667
512.01	46.1376
512.14	46.2735
512.27	46.2820
512.39	46.3449
512.52	46.5204
512.65	46.7314
512.78	46.7102
512.91	46.6893
513.03	46.7930
513.16	46.9551
513.29	47.1754
513.42	47.1557
513.55	47.7521
513.67	48.1634
513.80	48.1092
513.93	47.9810
514.06	48.3616
514.19	48.0258
514.31	48.2125
514.44	48.3089
514.57	48.1912
514.70	48.5118
514.83	48.8586
514.95	48.5952
515.08	48.6902
515.21	49.1272
515.34	49.2316
515.47	49.2136
515.59	49.4031
515.72	49.2231
515.85	49.4431
515.98	49.2417
516.11	49.1383
516.23	49.3987
516.36	50.0171
516.49	49.7551
516.62	49.5900
516.75	50.2777
516.87	50.1848
517.00	49.6444
517.13	49.8988
517.26	50.7597
517.39	50.3398
517.51	49.9408
517.64	50.5495
517.77	50.5370
517.90	50.1667
518.02	50.6614
518.15	51.0773
518.28	50.8130
518.41	50.8243
518.54	50.8856
518.66	50.7592
518.79	50.9556
518.92	51.0408
519.05	50.9283
519.18	51.0132
519.30	50.9570
519.43	50.9884
519.56	50.7876
519.69	51.2157
519.81	51.4572
519.94	51.5171
520.07	51.4975
520.20	51.7399
520.33	51.8481
520.45	51.7010
520.58	51.5820
520.71	51.7098
520.84	52.0882
520.96	52.1801
521.09	51.9530
521.22	51.9742
521.35	52.2701
521.48	52.3724
521.60	52.1683
521.73	52.0078
521.86	52.3393
521.99	52.2887
522.11	51.9487
522.24	52.0835
522.37	52.1383
522.50	52.3741
522.62	52.2407
522.75	52.5321
522.88	52.4541
523.01	52.6910
523.14	52.0982
523.26	52.4715
523.39	52.1395
523.52	52.3049
523.65	52.6913
523.77	53.1444
523.90	52.9000
524.03	53.2829
524.16	53.4032
524.28	53.2647
524.41	53.4755
524.54	53.5982
524.67	53.4221
524.79	53.0907
524.92	53.4390
525.05	53.1948
525.18	53.4700
525.31	53.0722
525.43	53.6450
525.56	53.9283
525.69	53.8257
525.82	53.4256
525.94	54.2214
526.07	54.1931
526.20	53.4319
526.33	53.4961
526.45	53.7250
526.58	53.7033
526.71	53.4849
526.84	53.9921
526.96	54.1124
527.09	54.1906
527.22	54.4064
527.35	54.1614
527.47	54.2250
527.60	54.1701
527.73	53.9470
527.86	53.6565
527.98	54.1252
528.11	53.7736
528.24	54.1301
528.37	54.2409
528.49	53.9812
528.62	54.2372
528.75	54.4803
528.88	54.2381
529.00	54.5223
529.13	55.0423
529.26	54.4046
529.39	54.1549
529.51	54.5674
529.64	54.4506
529.77	54.1391
529.90	54.4649
530.02	54.8831
530.15	54.6149
530.28	54.5323
530.40	54.5685
530.53	54.7488
530.66	54.4300
530.79	54.4690
530.91	54.4493
531.04	54.5840
531.17	54.4696
531.30	54.6824
531.42	54.2768
531.55	54.5853
531.68	54.7514
531.81	54.7574
531.93	54.9402
532.06	55.3329
532.19	55.0557
532.31	54.7746
532.44	54.9791
532.57	54.8173
532.70	54.6342
532.82	54.4562
532.95	54.5052
533.08	54.5111
533.21	54.6541
533.33	54.9110
533.46	54.6978
533.59	54.9076
533.71	54.9317
533.84	54.8807
533.97	54.9159
534.10	55.4112
534.22	55.3885
534.35	55.0912
534.48	55.2407
534.61	55.3783
534.73	55.2800
534.86	55.0641
534.99	55.2921
535.11	55.2198
535.24	55.2484
535.37	55.5783
535.50	55.5920
535.62	55.5070
535.75	55.5232
535.88	55.3435
536.00	55.0907
536.13	55.3225
536.26	55.5583
536.39	55.2751
536.51	55.3817
536.64	55.5911
536.77	55.5804
536.89	55.4066
537.02	55.6917
537.15	55.6095
537.28	55.7061
537.40	55.5909
537.53	55.6097
537.66	55.7567
537.78	55.9851
537.91	55.8902
538.04	56.3425
538.17	56.2377
538.29	55.8579
538.42	55.7056
538.55	55.8988
538.67	55.6441
538.80	56.0350
538.93	56.0679
539.05	55.9909
539.18	55.7755
539.31	56.1390
539.44	55.9499
539.56	56.2469
539.69	56.6946
539.82	56.9927
539.94	56.4504
540.07	56.6431
540.20	56.7151
540.32	56.4609
540.45	56.0272
540.58	56.5965
540.71	56.7368
540.83	56.8012
540.96	56.5699
541.09	56.6276
541.21	56.7233
541.34	56.7237
541.47	56.5111
541.59	56.3621
541.72	56.6018
541.85	56.6643
541.98	56.5912
542.10	56.2772
542.23	56.7396
542.36	56.8456
542.48	56.6946
542.61	56.6010
542.74	57.0976
542.86	57.2354
542.99	57.1243
543.12	57.1941
543.24	57.1830
543.37	57.2182
543.50	57.0987
543.62	57.2909
543.75	57.1425
543.88	57.0699
544.01	56.8819
544.13	56.9497
544.26	56.8587
544.39	56.8252
544.51	56.8571
544.64	57.1529
544.77	57.1250
544.89	57.3744
545.02	57.2730
545.15	57.2480
545.27	57.2275
545.40	57.2112
545.53	57.3197
545.65	57.7676
545.78	58.0706
545.91	58.0364
546.03	58.3361
546.16	58.2689
546.29	58.1374
546.41	58.3284
546.54	58.2721
546.67	57.9119
546.79	58.0715
546.92	57.9992
547.05	57.8964
547.17	57.9953
547.30	58.3994
547.43	58.1339
547.56	58.3483
547.68	58.2690
547.81	58.3723
547.94	58.4219
548.06	58.2865
548.19	58.3183
548.32	58.5683
548.44	58.5657
548.57	58.3035
548.70	58.5602
548.82	58.6410
548.95	58.7348
549.08	58.4970
549.20	58.7234
549.33	58.8766
549.45	59.0462
549.58	58.7817
549.71	59.4309
549.83	59.4733
549.96	59.4293
550.09	59.1419
550.21	59.3748
550.34	59.1330
550.47	59.4799
550.59	59.4662
550.72	59.2347
550.85	59.3804
550.97	59.6275
551.10	59.1614
551.23	59.2211
551.35	59.7957
551.48	59.8870
551.61	59.5469
551.73	59.7100
551.86	59.9323
551.99	59.6517
552.11	59.4554
552.24	59.9146
552.37	60.1656
552.49	60.0573
552.62	60.3678
552.75	60.6399
552.87	60.5018
553.00	60.5334
553.12	60.5505
553.25	60.3040
553.38	60.1925
553.50	60.4608
553.63	60.3799
553.76	60.5413
553.88	60.9304
554.01	60.9751
554.14	60.6783
554.26	60.9592
554.39	61.0081
554.52	61.0527
554.64	61.1317
554.77	61.3192
554.89	61.2723
555.02	61.4339
555.15	61.4887
555.27	61.4047
555.40	61.6784
555.53	61.9898
555.65	61.8517
555.78	61.6733
555.91	62.1756
556.03	62.3097
556.16	62.0123
556.29	61.9939
556.41	62.4217
556.54	62.3802
556.66	61.8754
556.79	61.9890
556.92	62.4764
557.04	62.3391
557.17	62.2646
557.30	62.7091
557.42	62.7314
557.55	62.6185
557.67	62.6370
557.80	62.6368
557.93	62.9314
558.05	63.1035
558.18	63.0217
558.31	63.0562
558.43	63.2563
558.56	63.3168
558.68	63.4343
558.81	63.3321
558.94	63.6839
559.06	63.7863
559.19	63.7435
559.32	63.7171
559.44	64.0675
559.57	63.9879
559.69	63.8564
559.82	63.8146
559.95	64.1499
560.07	64.2081
560.20	64.1189
560.33	64.4822
560.45	64.3556
560.58	64.3696
560.70	64.5379
560.83	64.7435
560.96	64.5379
561.08	65.0720
561.21	65.3644
561.33	65.2336
561.46	65.4874
561.59	65.8280
561.71	65.8708
561.84	65.6233
561.97	66.0665
562.09	66.1667
562.22	66.0473
562.34	66.0311
562.47	66.2329
562.60	66.2096
562.72	66.1073
562.85	66.3262
562.97	66.4327
563.10	66.5079
563.23	66.4100
563.35	66.4604
563.48	66.3349
563.60	66.4945
563.73	66.5794
563.86	66.7794
563.98	67.0541
564.11	67.1365
564.23	67.1918
564.36	67.1437
564.49	67.3600
564.61	67.5090
564.74	67.6435
564.86	67.6273
564.99	67.6879
565.12	67.7390
565.24	67.7212
565.37	67.8544
565.49	68.0347
565.62	68.5247
565.75	68.1162
565.87	68.1322
566.00	68.5930
566.12	68.5009
566.25	68.4140
566.38	68.8235
566.50	68.9229
566.63	68.8113
566.75	69.0775
566.88	69.0187
567.01	69.2209
567.13	69.4790
567.26	69.3483
567.38	69.4944
567.51	69.5963
567.64	69.5929
567.76	69.6591
567.89	70.0290
568.01	69.9353
568.14	70.0354
568.26	70.2615
568.39	70.1954
568.52	70.1914
568.64	70.3973
568.77	70.5330
568.89	70.7107
569.02	70.9249
569.15	70.9114
569.27	70.8059
569.40	70.8793
569.52	70.8945
569.65	71.0744
569.77	71.4016
569.90	71.4170
570.03	71.6257
570.15	71.7362
570.28	71.9052
570.40	71.8070
570.53	72.0069
570.66	72.0295
570.78	72.1840
570.91	72.0106
571.03	72.1413
571.16	72.4364
571.28	72.4971
571.41	72.6003
571.54	72.6664
571.66	72.6911
571.79	72.7155
571.91	72.6475
572.04	72.3599
572.16	72.5227
572.29	72.6159
572.42	72.7322
572.54	72.7983
572.67	73.1255
572.79	73.1855
572.92	73.2504
573.04	73.3887
573.17	73.7542
573.29	73.5681
573.42	73.5181
573.55	73.6570
573.67	73.7444
573.80	73.7691
573.92	73.9046
574.05	74.0447
574.17	74.1340
574.30	74.2214
574.43	74.1660
574.55	74.5024
574.68	74.6839
574.80	74.8874
574.93	74.9546
575.05	75.1292
575.18	75.0643
575.30	74.9954
575.43	75.0592
575.56	75.0852
575.68	75.2272
575.81	75.1902
575.93	75.3072
576.06	75.4032
576.18	75.5330
576.31	75.1942
576.43	75.3891
576.56	75.5911
576.69	75.7104
576.81	75.7443
576.94	76.1009
577.06	76.2787
577.19	76.2656
577.31	75.9886
577.44	76.0666
577.56	76.0387
577.69	76.1844
577.82	76.5741
577.94	76.6875
578.07	76.5318
578.19	76.9247
578.32	76.9695
578.44	76.6961
578.57	76.9418
578.69	77.0106
578.82	76.7222
578.94	76.6576
579.07	76.7344
579.19	76.7159
579.32	77.0377
579.45	77.3914
579.57	77.4510
579.70	77.6459
579.82	77.5428
579.95	77.5582
580.07	77.4018
580.20	77.4325
580.32	77.3849
580.45	77.5816
580.57	77.4550
580.70	77.4079
580.82	77.7923
580.95	77.6262
581.08	77.7691
581.20	77.8544
581.33	78.0313
581.45	77.6156
581.58	78.1336
581.70	78.0379
581.83	78.0326
581.95	78.1590
582.08	78.4211
582.20	78.2952
582.33	78.4803
582.45	78.4900
582.58	78.5279
582.70	78.6344
582.83	78.5980
582.95	78.5978
583.08	78.6950
583.21	78.7880
583.33	79.0036
583.46	79.0350
583.58	78.9761
583.71	79.1571
583.83	79.1723
583.96	78.9669
584.08	78.9719
584.21	79.1828
584.33	79.3177
584.46	79.0949
584.58	78.9264
584.71	79.0947
584.83	79.2285
584.96	79.0025
585.08	79.1142
585.21	79.4313
585.33	79.4074
585.46	79.4895
585.58	79.7470
585.71	79.7674
585.83	79.8464
585.96	79.7833
586.08	79.5211
586.21	79.6210
586.33	79.6975
586.46	79.6945
586.59	79.7392
586.71	79.7869
586.84	79.8399
586.96	80.0107
587.09	79.6561
587.21	79.7483
587.34	79.9893
587.46	79.7156
587.59	79.7031
587.71	80.2376
587.84	80.3629
587.96	80.0843
588.09	80.1414
588.21	80.0334
588.34	79.8371
588.46	79.7848
588.59	79.9995
588.71	80.0907
588.84	79.8733
588.96	79.8879
589.09	80.0506
589.21	80.1204
589.34	80.0369
589.46	80.2862
589.59	80.5423
589.71	80.5516
589.84	80.4820
589.96	80.5656
590.09	80.6790
590.21	80.5005
590.34	80.5992
590.46	80.6306
590.59	80.5119
590.71	80.7699
590.84	80.6884
590.96	80.5420
591.09	80.7156
591.21	81.1180
591.34	80.7228
591.46	80.7874
591.59	80.6657
591.71	80.7161
591.83	80.5336
591.96	80.7609
592.08	80.8239
592.21	81.0384
592.33	81.0513
592.46	80.9969
592.58	80.8568
592.71	80.8756
592.83	80.5829
592.96	80.5253
593.08	80.7537
593.21	81.0120
593.33	81.1179
593.46	81.2415
593.58	81.1464
593.71	81.2397
593.83	80.9029
593.96	80.7946
594.08	80.9912
594.21	81.0174
594.33	81.0033
594.46	81.4686
594.58	81.5618
594.71	81.5519
594.83	81.1652
594.96	81.0036
595.08	81.0006
595.20	81.1901
595.33	80.8129
595.45	81.2562
595.58	81.4994
595.70	81.4363
595.83	81.1786
595.95	81.5738
596.08	81.7217
596.20	81.5391
596.33	81.5800
596.45	81.8133
596.58	81.7140
596.70	81.6226
596.83	81.5879
596.95	81.7142
597.08	81.5892
597.20	81.5869
597.32	81.4954
597.45	81.4584
597.57	81.3282
597.70	81.2525
597.82	81.3784
597.95	81.4307
598.07	81.5193
598.20	81.6158
598.32	81.6318
598.45	81.4992
598.57	81.6402
598.70	81.7542
598.82	81.4691
598.94	81.4356
599.07	81.5525
599.19	81.7673
599.32	81.4815
599.44	81.6275
599.57	81.7887
599.69	81.9711
599.82	81.4386
599.94	81.6002
600.07	81.8218
600.19	81.8706
600.31	81.4200
600.44	81.5549
600.56	81.6889
600.69	81.5773
600.81	81.5631
600.94	81.7756
601.06	81.7536
601.19	81.9284
601.31	81.7364
601.44	81.6896
601.56	81.7935
601.68	81.9805
601.81	81.5912
601.93	81.9338
602.06	82.1566
602.18	82.0122
602.31	81.8647
602.43	82.0122
602.56	81.8205
602.68	81.4842
602.80	81.7334
602.93	81.8210
603.05	81.8702
603.18	82.0720
603.30	82.3510
603.43	82.2487
603.55	82.3350
603.68	82.3863
603.80	82.2603
603.92	82.1531
604.05	82.3475
604.17	82.3062
604.30	82.1706
604.42	81.9825
604.55	81.9884
604.67	81.8225
604.79	81.7554
604.92	81.8642
605.04	82.0479
605.17	82.0891
605.29	81.9434
605.42	82.1084
605.54	82.0712
605.66	82.0315
605.79	81.9089
605.91	82.1340
606.04	81.9435
606.16	81.9838
606.29	82.1700
606.41	82.4047
606.53	82.3138
606.66	82.5647
606.78	82.6287
606.91	82.5170
607.03	82.5165
607.16	82.5000
607.28	82.3166
607.40	82.3615
607.53	82.4551
607.65	82.4663
607.78	82.3437
607.90	82.5848
608.03	82.5618
608.15	82.6893
608.27	82.7061
608.40	83.0398
608.52	82.7763
608.65	82.9614
608.77	82.7083
608.89	82.4191
609.02	82.4607
609.14	82.5745
609.27	82.5144
609.39	82.9359
609.52	83.2303
609.64	83.2244
609.76	83.1377
609.89	82.8500
610.01	82.6436
610.14	82.7043
610.26	82.4896
610.38	82.8001
610.51	83.1156
610.63	82.9984
610.76	82.8933
610.88	82.8150
611.01	82.6581
611.13	82.7106
611.25	82.8518
611.38	82.9856
611.50	83.2038
611.63	83.3735
611.75	83.3017
611.87	83.0872
612.00	83.0312
612.12	83.3383
612.25	83.2969
612.37	83.3120
612.49	83.2905
612.62	83.3487
612.74	83.1509
612.87	83.2687
612.99	83.1434
613.11	83.1715
613.24	83.1182
613.36	83.0965
613.49	82.9777
613.61	82.9480
613.73	83.2493
613.86	83.3486
613.98	83.3392
614.11	83.2736
614.23	83.3534
614.35	83.3050
614.48	83.2773
614.60	83.2608
614.72	83.4045
614.85	83.5446
614.97	83.6091
615.10	83.5440
615.22	83.5713
615.34	83.7034
615.47	83.7049
615.59	83.6687
615.72	83.9918
615.84	83.7668
615.96	83.6692
616.09	83.8064
616.21	83.6926
616.34	83.4043
616.46	83.7238
616.58	83.6858
616.71	83.5126
616.83	83.5232
616.95	83.6458
617.08	83.7890
617.20	83.9630
617.33	83.8775
617.45	84.0469
617.57	84.1148
617.70	83.9581
617.82	83.7663
617.95	83.9751
618.07	83.9289
618.19	83.8125
618.32	83.9985
618.44	84.2782
618.56	84.4972
618.69	84.3805
618.81	84.5481
618.94	84.5120
619.06	84.4140
619.18	84.3872
619.31	84.4639
619.43	84.2843
619.55	84.5480
619.68	84.6771
619.80	84.2250
619.92	84.2304
620.05	84.5989
620.17	84.6259
620.30	84.4771
620.42	84.8592
620.54	85.0915
620.67	84.9345
620.79	84.4804
620.91	84.4823
621.04	84.4675
621.16	84.5894
621.29	84.5950
621.41	84.8600
621.53	85.1634
621.66	85.0827
621.78	84.7021
621.90	84.9057
622.03	85.0466
622.15	84.9422
622.27	85.2135
622.40	85.4214
622.52	85.5430
622.64	85.5012
622.77	85.2625
622.89	85.2336
623.02	85.3515
623.14	85.1438
623.26	84.9943
623.39	85.3292
623.51	85.5033
623.63	85.3573
623.76	85.3277
623.88	85.5650
624.00	85.4906
624.13	85.3924
624.25	85.4796
624.37	85.4124
624.50	85.6686
624.62	85.9401
624.75	85.7613
624.87	85.9982
624.99	86.2084
625.12	85.5367
625.24	85.2743
625.36	85.4181
625.49	85.1766
625.61	84.9262
625.73	85.4522
625.86	85.5514
625.98	85.6758
626.10	85.7130
626.23	85.9024
626.35	85.9198
626.47	85.9319
626.60	85.8773
626.72	85.9026
626.84	86.0662
626.97	86.1432
627.09	85.8687
627.21	85.7300
627.34	86.0869
627.46	86.0957
627.58	85.7971
627.71	86.4419
627.83	86.4716
627.95	85.9554
628.08	85.9640
628.20	86.3436
628.32	86.1329
628.45	86.2658
628.57	86.5430
628.69	86.3749
628.82	86.4012
628.94	86.3878
629.06	86.3729
629.19	86.6692
629.31	86.7981
629.43	86.6672
629.56	86.4921
629.68	86.6886
629.80	86.6461
629.93	86.7704
630.05	86.8240
630.17	87.2275
630.30	87.1417
630.42	87.1993
630.54	87.3532
630.67	87.0622
630.79	86.9409
630.91	86.9740
631.04	86.9174
631.16	86.8922
631.28	87.3567
631.41	87.2225
631.53	87.1433
631.65	87.0007
631.78	86.8345
631.90	86.9379
632.02	86.8187
632.14	86.9259
632.27	87.0825
632.39	86.8237
632.51	86.6432
632.64	86.9714
632.76	87.0603
632.88	87.1798
633.01	87.5416
633.13	87.2047
633.25	87.3576
633.38	87.4535
633.50	87.4357
633.62	87.6214
633.75	87.8932
633.87	87.7921
633.99	87.9198
634.11	87.8142
634.24	87.7437
634.36	87.8970
634.48	87.6778
634.61	87.6839
634.73	87.8481
634.85	87.9107
634.98	87.9901
635.10	87.8602
635.22	87.7195
635.35	87.9633
635.47	87.9400
635.59	87.8055
635.71	88.0713
635.84	87.9625
635.96	87.8331
636.08	87.7337
636.21	87.6905
636.33	87.9293
636.45	88.2556
636.58	87.9191
636.70	88.1033
636.82	88.5370
636.94	88.3382
637.07	88.0658
637.19	88.2943
637.31	88.4370
637.44	88.1993
637.56	88.2992
637.68	88.4569
637.81	88.8881
637.93	88.5864
638.05	88.1576
638.17	88.2297
638.30	88.2807
638.42	87.8868
638.54	88.0421
638.67	88.4227
638.79	88.5371
638.91	88.5929
639.03	88.7206
639.16	88.7579
639.28	88.9191
639.40	88.5757
639.53	88.5275
639.65	88.5850
639.77	88.4694
639.89	88.3483
640.02	88.7366
640.14	88.5308
640.26	88.5399
640.39	88.7316
640.51	88.6520
640.63	88.4661
640.75	88.7966
640.88	88.7776
641.00	88.3573
641.12	88.7177
641.24	89.0805
641.37	88.6573
641.49	88.7982
641.61	89.2260
641.74	89.2733
641.86	88.9320
641.98	89.2817
642.10	89.2370
642.23	89.1761
642.35	88.8401
642.47	88.7892
642.60	88.9061
642.72	88.8411
642.84	88.8534
642.96	88.9796
643.09	89.2345
643.21	89.2491
643.33	89.2121
643.45	89.1042
643.58	89.3016
643.70	89.2486
643.82	89.2485
643.94	89.4029
644.07	89.5600
644.19	89.3381
644.31	89.3972
644.44	89.3268
644.56	89.2274
644.68	89.2790
644.80	89.4555
644.93	89.3719
645.05	89.4912
645.17	89.6484
645.29	89.7449
645.42	89.5556
645.54	89.5665
645.66	89.6041
645.78	89.4824
645.91	89.2129
646.03	89.4806
646.15	89.6054
646.27	89.5329
646.40	89.4340
646.52	89.7803
646.64	89.9302
646.76	89.7899
646.89	89.7635
647.01	89.7564
647.13	89.8904
647.25	89.7237
647.38	89.6583
647.50	89.9311
647.62	90.2804
647.74	89.9161
647.87	89.6632
647.99	89.8868
648.11	89.9012
648.23	89.6160
648.36	89.8224
648.48	90.1665
648.60	90.3424
648.72	89.8280
648.85	89.9624
648.97	89.9976
649.09	89.9153
649.21	89.7038
649.34	90.0063
649.46	90.0584
649.58	90.1725
649.70	90.0284
649.83	90.0400
649.95	90.0441
650.07	90.0281
650.19	89.8175
650.32	89.8801
650.44	89.9524
650.56	89.9725
650.68	89.9991
650.81	89.8815
650.93	89.9669
651.05	89.8235
651.17	89.8606
651.29	89.8351
651.42	90.1460
651.54	90.3343
651.66	90.3643
651.78	89.9462
651.91	90.0093
652.03	90.0841
652.15	89.9640
652.27	90.1965
652.40	90.6753
652.52	90.8228
652.64	90.2475
652.76	90.1721
652.88	90.1303
653.01	90.3253
653.13	90.0476
653.25	90.3302
653.37	90.3940
653.50	90.5079
653.62	90.0415
653.74	90.0206
653.86	90.3127
653.98	90.3653
654.11	90.2840
654.23	90.2582
654.35	90.4195
654.47	90.4542
654.60	90.7269
654.72	90.4518
654.84	90.7638
654.96	90.8274
655.08	90.7217
655.21	90.3617
655.33	90.6028
655.45	90.6770
655.57	90.5082
655.70	90.2489
655.82	90.2614
655.94	90.5218
656.06	90.2937
656.18	90.2853
656.31	90.5961
656.43	90.7216
656.55	90.4535
656.67	90.4126
656.79	90.6541
656.92	90.6794
657.04	90.3629
657.16	90.4625
657.28	90.5608
657.40	90.6563
657.53	90.5562
657.65	90.5904
657.77	90.6932
657.89	90.9952
658.01	90.7731
658.14	90.8531
658.26	91.3231
658.38	91.2621
658.50	90.7464
658.62	90.8725
658.75	90.7925
658.87	90.8719
658.99	90.8396
659.11	90.9232
659.23	91.0250
659.36	91.1117
659.48	90.9100
659.60	90.9456
659.72	91.1873
659.84	91.0968
659.97	90.6575
660.09	90.4193
660.21	90.5720
660.33	90.8093
660.45	90.6964
660.58	90.9123
660.70	91.3316
660.82	91.0883
660.94	90.7066
661.06	90.6859
661.19	90.9729
661.31	90.7967
661.43	90.6822
661.55	90.6871
661.67	90.9421
661.80	90.8281
661.92	90.8136
662.04	90.9188
662.16	91.2821
662.28	91.2103
662.40	91.1808
662.53	91.3266
662.65	91.2188
662.77	91.1922
662.89	91.2822
663.01	91.3070
663.14	91.0551
663.26	91.3682
663.38	91.1427
663.50	90.7413
663.62	90.7506
663.74	90.9215
663.87	90.7009
663.99	90.4100
664.11	90.7664
664.23	91.0010
664.35	90.8850
664.48	91.1086
664.60	91.6627
664.72	91.6716
664.84	91.3041
664.96	91.3976
665.08	91.1758
665.21	91.2570
665.33	91.0820
665.45	91.0553
665.57	91.0379
665.69	91.1643
665.81	91.0036
665.94	90.9343
666.06	91.0563
666.18	91.3099
666.30	91.1486
666.42	90.9870
666.54	91.2092
666.67	91.0615
666.79	90.7651
666.91	91.0086
667.03	91.0688
667.15	91.0186
667.27	91.2891
667.40	91.0413
667.52	90.8511
667.64	91.0447
667.76	90.8688
667.88	90.6196
668.00	90.7976
668.13	90.8830
668.25	90.7483
668.37	90.6512
668.49	90.9165
668.61	91.0709
668.73	90.9608
668.85	90.7471
668.98	91.0458
669.10	90.8536
669.22	90.4695
669.34	90.6358
669.46	90.6645
669.58	90.4595
669.71	90.6575
669.83	90.8966
669.95	90.8134
670.07	90.8680
670.19	91.1065
670.31	91.0299
670.43	90.8857
670.56	90.7758
670.68	90.9145
670.80	90.4112
670.92	90.2960
671.04	90.5359
671.16	90.6336
671.28	90.2926
671.41	90.6507
671.53	90.9308
671.65	90.4767
671.77	90.1993
671.89	90.4813
672.01	90.7066
672.13	90.3765
672.26	90.8463
672.38	90.8717
672.50	90.6457
672.62	90.2647
672.74	90.4055
672.86	90.2951
672.98	90.5493
673.11	90.4991
673.23	90.7229
673.35	90.7219
673.47	90.9842
673.59	90.8343
673.71	90.6219
673.83	90.5358
673.96	90.6873
674.08	90.3025
674.20	90.2847
674.32	90.6573
674.44	90.6588
674.56	90.2686
674.68	90.2335
674.80	90.4373
674.93	90.4772
675.05	90.3160
675.17	90.3234
675.29	90.4140
675.41	90.2259
675.53	90.1396
675.65	90.0031
675.77	90.1703
675.90	90.3520
676.02	90.0704
676.14	89.7488
676.26	90.0224
676.38	89.9533
676.50	89.8686
676.62	90.3924
676.74	90.6361
676.87	90.3298
676.99	90.1954
677.11	90.0519
677.23	89.7494
677.35	89.9007
677.47	90.1070
677.59	90.0471
677.71	90.0361
677.83	89.9260
677.96	89.8421
678.08	89.9139
678.20	90.1596
678.32	90.2599
678.44	90.0866
678.56	89.9978
678.68	90.1127
678.80	90.0445
678.93	89.8733
679.05	89.9208
679.17	89.9882
679.29	89.8530
679.41	89.8324
679.53	89.8287
679.65	90.0412
679.77	89.9257
679.89	89.5790
680.01	89.7568
680.14	89.9168
680.26	89.7011
680.38	89.5989
680.50	89.7776
680.62	89.5268
680.74	89.4268
680.86	89.6406
680.98	89.4377
681.10	89.5620
681.22	89.7653
681.35	89.9593
681.47	89.4467
681.59	89.8267
681.71	89.8878
681.83	89.5054
681.95	89.0071
682.07	89.4442
682.19	89.4276
682.31	88.9961
682.43	89.2605
682.56	89.5233
682.68	89.4909
682.80	89.2933
682.92	89.5610
683.04	89.5479
683.16	89.2757
683.28	89.2304
683.40	89.1898
683.52	89.1591
683.64	89.1113
683.76	89.3606
683.89	89.2049
684.01	89.3137
684.13	89.2988
684.25	89.1139
684.37	89.1238
684.49	89.0700
684.61	89.0999
684.73	89.2349
684.85	89.0726
684.97	89.1562
685.09	89.6459
685.21	89.3619
685.34	89.3276
685.46	89.5980
685.58	89.2545
685.70	89.1924
685.82	89.5168
685.94	89.4674
686.06	89.4602
686.18	89.6584
686.30	89.3817
686.42	89.4551
686.54	89.1037
686.66	89.0990
686.79	88.8168
686.91	88.8255
687.03	88.9152
687.15	89.3529
687.27	89.1817
687.39	89.5257
687.51	89.6202
687.63	89.3480
687.75	88.8824
687.87	89.1910
687.99	89.0319
688.11	88.7498
688.23	88.8086
688.35	89.1815
688.48	89.0952
688.60	89.0560
688.72	89.3331
688.84	89.4862
688.96	89.6163
689.08	89.1425
689.20	89.2410
689.32	89.4075
689.44	89.5067
689.56	89.3179
689.68	89.7357
689.80	89.7475
689.92	89.5536
690.04	89.3113
690.16	89.2391
690.28	89.5540
690.41	89.4936
690.53	89.2491
690.65	89.1136
690.77	89.1776
690.89	88.8721
691.01	88.9798
691.13	89.0866
691.25	89.2687
691.37	89.5146
691.49	89.1507
691.61	89.0544
691.73	89.4357
691.85	89.5834
691.97	89.1659
692.09	89.5239
692.21	89.5097
692.33	89.6026
692.45	89.5537
692.57	89.5944
692.70	89.8830
692.82	90.0811
692.94	89.7617
693.06	89.7822
693.18	90.1529
693.30	89.7259
693.42	89.6287
693.54	89.7470
693.66	89.8843
693.78	89.6259
693.90	89.8855
694.02	90.1278
694.14	90.1178
694.26	89.7542
694.38	89.7900
694.50	89.9088
694.62	89.8512
694.74	89.7704
694.86	89.9076
694.98	89.8479
695.10	89.8758
695.22	89.8055
695.34	89.9866
695.46	90.0585
695.58	90.3172
695.71	90.3030
695.83	90.0433
695.95	90.0999
696.07	90.1851
696.19	90.2299
696.31	89.8447
696.43	89.9842
696.55	89.9545
696.67	89.9017
696.79	89.8179
696.91	89.7548
697.03	89.9171
697.15	90.0547
697.27	89.7983
697.39	89.8618
697.51	90.2537
697.63	89.9123
697.75	89.7422
697.87	90.1756
697.99	90.1066
698.11	90.0921
698.23	90.4531
698.35	90.4683
698.47	90.5618
698.59	90.3662
698.71	90.5260
698.83	90.5841
698.95	90.6264
699.07	90.3702
699.19	90.7099
699.31	90.5142
699.43	90.5883
699.55	90.6553
699.67	90.8013
699.79	90.7390
699.91	90.8236
700.03	90.7022
700.15	90.5869
700.27	90.7228
700.39	90.6258
700.51	90.6679
700.63	90.5877
700.75	90.8489
700.87	90.6365
700.99	90.9405
701.11	90.9172
701.24	90.7967
701.36	90.5528
701.48	90.7683
701.60	90.3347
701.72	90.4290
701.84	90.8455
701.96	90.7964
702.08	90.4871
702.20	90.8007
702.32	90.8898
702.44	90.9361
702.56	91.1410
702.68	91.0040
702.80	90.8810
702.92	90.8705
703.04	90.7589
703.16	90.9159
703.28	91.2578
703.40	91.3372
703.52	91.2218
703.64	91.1478
703.76	90.9977
703.88	91.0432
704.00	90.9236
704.12	91.0032
704.24	90.9800
704.36	91.0935
704.48	90.9468
704.60	91.1187
704.72	90.8355
704.84	90.8956
704.96	90.9862
705.07	91.2012
705.19	91.0962
705.31	91.5336
705.43	91.4798
705.55	91.3366
705.67	91.5182
705.79	91.7623
705.91	91.5593
706.03	91.5961
706.15	91.7011
706.27	91.3885
706.39	91.3433
706.51	91.3720
706.63	91.3064
706.75	90.9941
706.87	91.0587
706.99	91.2280
707.11	91.2909
707.23	91.3844
707.35	91.4151
707.47	91.2715
707.59	91.1348
707.71	91.0586
707.83	91.1627
707.95	91.0002
708.07	91.0877
708.19	91.3541
708.31	91.3861
708.43	91.2406
708.55	91.5873
708.67	91.5810
708.79	91.2782
708.91	91.1747
709.03	91.3847
709.15	91.3519
709.27	91.4548
709.39	91.4229
709.51	91.5727
709.63	91.8070
709.75	91.7959
709.87	91.8449
709.99	92.0641
710.11	92.3423
710.23	91.7645
710.35	91.7363
710.47	91.7007
710.58	91.4136
710.70	91.1248
710.82	91.3858
710.94	91.3957
711.06	91.5164
711.18	91.4151
711.30	91.3321
711.42	91.3233
711.54	91.6704
711.66	91.5013
711.78	91.4316
711.90	91.7246
712.02	92.0619
712.14	91.5579
712.26	91.3177
712.38	91.7163
712.50	91.6826
712.62	91.4676
712.74	91.3423
712.86	91.7682
712.98	91.7688
713.10	91.4584
713.22	91.2538
713.34	91.5290
713.45	91.3943
713.57	91.2002
713.69	91.3060
713.81	91.5821
713.93	92.0401
714.05	91.8644
714.17	91.7926
714.29	92.1091
714.41	91.9544
714.53	91.6186
714.65	92.0251
714.77	91.8881
714.89	91.7300
715.01	91.8216
715.13	91.8555
715.25	91.8235
715.37	92.0139
715.49	91.9466
715.61	91.7104
715.72	91.7872
715.84	91.7113
715.96	91.6351
716.08	91.5759
716.20	91.8338
716.32	91.7854
716.44	91.7523
716.56	91.6914
716.68	91.7840
716.80	91.9199
716.92	92.0321
717.04	92.1208
717.16	92.6145
717.28	92.5589
717.40	92.3921
717.52	92.2889
717.63	92.2273
717.75	92.1384
717.87	92.3512
717.99	92.1570
718.11	92.0351
718.23	91.9441
718.35	92.0974
718.47	91.9798
718.59	92.2698
718.71	92.2828
718.83	92.6146
718.95	92.3610
719.07	92.3698
719.19	92.2740
719.30	92.3506
719.42	92.1076
719.54	92.0976
719.66	92.3067
719.78	92.3096
719.90	92.4255
720.02	92.3686
720.14	92.4355
720.26	92.2631
720.38	92.5200
720.50	92.2507
720.62	92.5491
720.74	92.4681
720.85	92.1563
720.97	92.1249
721.09	92.2217
721.21	92.0076
721.33	92.1346
721.45	92.3941
721.57	92.5799
721.69	92.4299
721.81	92.2101
721.93	92.3485
722.05	92.6449
722.16	92.3708
722.28	92.4359
722.40	92.4442
722.52	92.6490
722.64	92.4443
722.76	92.3274
722.88	92.7675
723.00	93.0170
723.12	93.0356
723.24	92.8025
723.36	92.7679
723.47	92.5925
723.59	92.5198
723.71	92.3996
723.83	92.6954
723.95	92.6864
724.07	92.3577
724.19	92.6592
724.31	92.8318
724.43	92.9542
724.55	92.5065
724.66	92.9982
724.78	93.0100
724.90	92.6870
725.02	92.4954
725.14	93.4564
725.26	93.3119
725.38	92.9953
725.50	92.8759
725.62	93.0630
725.74	93.1129
725.85	93.2545
725.97	92.1188
726.09	92.5044
726.21	92.6832
726.33	92.4678
726.45	92.3638
726.57	93.6893
726.69	93.3206
726.81	92.9923
726.92	92.7610
727.04	92.7406
727.16	92.7392
727.28	92.9247
727.40	92.5177
727.52	92.3780
727.64	92.3584
727.76	92.5191
727.88	92.4662
727.99	92.8133
728.11	93.0442
728.23	93.1443
728.35	92.9251
728.47	92.8378
728.59	93.1180
728.71	93.1758
728.83	92.9413
728.94	92.8151
729.06	92.8924
729.18	92.7208
729.30	92.4656
729.42	92.4612
729.54	92.7664
729.66	92.7066
729.78	92.6777
729.90	93.1757
730.01	93.3200
730.13	93.3448
730.25	93.3118
730.37	93.4267
730.49	93.1958
730.61	93.2034
730.73	93.1683
730.84	93.2492
730.96	93.4248
731.08	93.6017
731.20	93.1141
731.32	93.1956
731.44	93.3414
731.56	92.9787
731.68	92.7675
731.79	93.3912
731.91	93.1274
732.03	93.0972
732.15	93.2641
732.27	93.1136
732.39	93.2445
732.51	93.6013
732.62	93.3161
732.74	93.3767
732.86	93.7205
732.98	93.5110
733.10	92.9791
733.22	93.4923
733.34	93.3903
733.45	93.3190
733.57	93.3182
733.69	93.7017
733.81	93.5669
733.93	93.5531
734.05	93.4767
734.17	93.5432
734.28	93.7799
734.40	93.7555
734.52	93.4296
734.64	93.4643
734.76	93.6479
734.88	93.2495
735.00	92.7512
735.11	93.2924
735.23	93.5622
735.35	93.1068
735.47	93.2460
735.59	93.6737
735.71	93.3423
735.83	92.9714
735.94	93.1409
736.06	93.0345
736.18	93.0352
736.30	93.5163
736.42	93.6970
736.54	93.2114
736.65	93.4144
736.77	93.5731
736.89	92.7864
737.01	93.0966
737.13	93.8207
737.25	93.6527
737.36	93.4633
737.48	94.1088
737.60	93.7379
737.72	93.3247
737.84	93.4740
737.96	93.3676
738.08	93.5216
738.19	93.4961
738.31	93.8580
738.43	93.7606
738.55	94.1446
738.67	93.9817
738.79	93.9848
738.90	94.1753
739.02	94.3986
739.14	94.0398
739.26	93.7710
739.38	94.0206
739.50	93.8296
739.61	93.6671
739.73	93.7116
739.85	93.6341
739.97	93.8596
740.09	93.8513
740.20	93.7474
740.32	94.1928
740.44	94.5174
740.56	94.1911
740.68	94.1847
740.80	94.1112
740.91	93.7794
741.03	93.9227
741.15	93.7427
741.27	93.7527
741.39	93.7290
741.51	93.8301
741.62	93.7820
741.74	94.0580
741.86	94.1193
741.98	94.3907
742.10	94.3325
742.21	94.3559
742.33	93.8468
742.45	93.8219
742.57	93.6362
742.69	93.7700
742.80	93.7665
742.92	94.3094
743.04	94.0169
743.16	94.4674
743.28	94.4773
743.40	94.5867
743.51	94.5250
743.63	94.8793
743.75	94.5910
743.87	94.4821
743.99	94.3107
744.10	94.3993
744.22	94.1701
744.34	93.9582
744.46	94.1533
744.58	93.8703
744.69	93.7491
744.81	94.2614
744.93	94.2477
745.05	93.8390
745.17	94.1885
745.28	94.2149
745.40	93.9847
745.52	94.1879
745.64	94.6269
745.76	94.8841
745.87	94.7315
745.99	94.8324
746.11	94.9894
746.23	95.0720
746.35	94.3032
746.46	94.3451
746.58	94.1620
746.70	94.0955
746.82	94.0342
746.94	94.6846
747.05	94.9239
747.17	95.1615
747.29	94.6350
747.41	94.8463
747.53	94.8187
747.64	94.5347
747.76	94.1243
747.88	94.7306
748.00	94.6330
748.12	94.6730
748.23	94.7546
748.35	94.9021
748.47	95.0256
748.59	94.9422
748.70	94.8364
748.82	94.9342
748.94	94.9106
749.06	94.8601
749.18	94.5329
749.29	94.4788
749.41	94.5528
749.53	94.5250
749.65	94.6418
749.76	95.0032
749.88	94.8788
750.00	94.6761
750.12	94.8511
750.24	94.8612
750.35	94.4713
750.47	94.7364
750.59	94.6200
750.71	94.9431
750.82	94.8566
750.94	95.0730
751.06	94.9815
751.18	95.2283
751.30	94.7855
751.41	94.7564
751.53	94.9728
751.65	94.8388
751.77	94.7611
751.88	95.2996
752.00	95.0225
752.12	94.9252
752.24	95.1181
752.35	95.1492
752.47	94.5953
752.59	95.1536
752.71	94.8726
752.83	95.1414
752.94	95.1721
753.06	95.3294
753.18	95.0450
753.30	95.2956
753.41	94.9662
753.53	94.9888
753.65	95.3006
753.77	95.3782
753.88	95.2886
754.00	95.1479
754.12	95.4198
754.24	95.7115
754.35	95.4559
754.47	95.4649
754.59	95.7778
754.71	95.7271
754.82	94.9939
754.94	95.1963
755.06	95.2602
755.18	95.3181
755.29	95.0610
755.41	95.3820
755.53	95.4329
755.65	95.4535
755.76	94.9243
755.88	94.9832
756.00	95.2271
756.12	95.1777
756.23	94.7509
756.35	95.1939
756.47	95.5829
756.59	95.2529
756.70	95.4128
756.82	95.7147
756.94	95.5862
757.06	95.3435
757.17	95.6123
757.29	95.2783
757.41	95.4159
757.53	95.4623
757.64	95.2675
757.76	95.0098
757.88	95.2263
758.00	95.5929
758.11	95.5853
758.23	95.7841
758.35	95.6661
758.47	95.6714
758.58	95.3141
758.70	95.5535
758.82	95.3358
758.94	95.7174
759.05	95.7902
759.17	95.4375
759.29	95.2366
759.40	95.4521
759.52	95.0691
759.64	94.7722
759.76	95.2162
759.87	95.3892
759.99	95.6864
760.11	95.9079
760.23	96.0564
760.34	96.0327
760.46	95.9040
760.58	95.3959
760.70	95.2925
760.81	95.3240
760.93	95.3788
761.05	95.7491
761.16	96.0768
761.28	96.4081
761.40	96.0998
761.52	95.9232
761.63	95.6362
761.75	95.6839
761.87	95.5086
761.98	96.0073
762.10	96.1025
762.22	96.4819
762.34	96.2582
762.45	95.6108
762.57	95.6520
762.69	95.5424
762.81	95.4491
762.92	95.3584
763.04	95.5036
763.16	95.3646
763.27	95.3831
763.39	94.9140
763.51	95.1711
763.63	95.9678
763.74	96.0415
763.86	96.2972
763.98	96.2904
764.09	96.4187
764.21	96.0914
764.33	96.0712
764.44	95.9053
764.56	96.1264
764.68	96.1655
764.80	95.7108
764.91	95.7568
765.03	95.8859
765.15	96.0898
765.26	95.6251
765.38	96.0781
765.50	95.9556
765.62	95.8218
765.73	95.8402
765.85	95.9759
765.97	96.1703
766.08	96.3713
766.20	96.3970
766.32	95.9669
766.43	96.0804
766.55	95.8887
766.67	95.7960
766.79	95.9459
766.90	96.2929
767.02	96.5221
767.14	95.7976
767.25	95.7202
767.37	95.7025
767.49	95.2810
767.60	94.8701
767.72	95.6626
767.84	95.9169
767.95	95.7490
768.07	95.9973
768.19	96.2978
768.31	96.3785
768.42	96.2361
768.54	96.0577
768.66	96.0455
768.77	96.1851
768.89	96.0711
769.01	95.8312
769.12	96.1275
769.24	96.3312
769.36	96.2589
769.47	95.9604
769.59	96.0505
769.71	95.9842
769.82	96.0627
769.94	95.6880
770.06	96.0822
770.17	96.0524
770.29	95.8024
770.41	95.8053
770.53	96.0850
770.64	95.8522
770.76	95.8646
770.88	96.6438
770.99	96.5721
771.11	96.6916
771.23	96.5733
771.34	96.4333
771.46	96.0037
771.58	95.8659
771.69	95.5470
771.81	96.0822
771.93	95.9671
772.04	96.0145
772.16	95.9571
772.28	96.2252
772.39	95.7812
772.51	96.3325
772.63	96.3824
772.74	95.8498
772.86	96.0452
772.98	96.3534
773.09	96.1220
773.21	95.9522
773.33	96.7437
773.44	96.2273
773.56	95.7510
773.68	95.9493
773.79	96.0516
773.91	95.9770
774.03	95.8834
774.14	96.3977
774.26	96.6648
774.38	96.5618
774.49	96.3504
774.61	96.7890
774.73	96.7427
774.84	96.3228
774.96	96.5878
775.08	96.7134
775.19	96.5289
775.31	96.5028
775.43	96.7404
775.54	96.1635
775.66	96.4963
775.77	96.3605
775.89	96.1227
776.01	95.9224
776.12	96.6835
776.24	96.5554
776.36	96.4497
776.47	96.3270
776.59	96.5526
776.71	96.4005
776.82	96.2237
776.94	96.2609
777.06	96.7392
777.17	96.8482
777.29	96.5412
777.41	96.5958
777.52	96.5977
777.64	96.8632
777.75	96.7920
777.87	96.6699
777.99	96.5747
778.10	96.9315
778.22	96.6944
778.34	96.4161
778.45	96.7187
778.57	96.9044
778.69	96.4509
778.80	96.4329
778.92	96.7180
779.04	96.6481
779.15	96.3137
779.27	96.3762
779.38	96.3948
779.50	96.1512
779.62	96.4827
779.73	96.0488
779.85	96.4493
779.97	96.5993
780.08	96.3968
780.20	95.9778
780.31	96.6832
780.43	96.7839
780.55	96.2211
780.66	95.8795
780.78	96.2947
780.90	96.4818
781.01	96.4112
781.13	96.2344
781.25	96.9930
781.36	96.7900
781.48	96.1040
781.59	95.8102
781.71	96.5523
781.83	96.7973
781.94	96.2565
782.06	96.7252
782.18	97.5375
782.29	97.0018
782.41	96.4736
782.52	97.0489
782.64	97.2467
782.76	97.2982
782.87	97.0560
782.99	96.4842
783.10	96.7077
783.22	96.5726
783.34	95.8457
783.45	96.4184
783.57	96.8393
783.69	96.1149
783.80	95.9136
783.92	96.1434
784.03	95.9990
784.15	96.3281
784.27	96.7448
784.38	96.7458
784.50	96.7977
784.61	96.9892
784.73	97.1823
784.85	96.8949
784.96	96.9834
785.08	96.9494
785.19	97.1898
785.31	97.1269
785.43	96.9984
785.54	96.8471
785.66	96.4199
785.77	96.4369
785.89	96.1722
786.01	96.4505
786.12	96.2008
786.24	96.3984
786.35	96.1147
786.47	96.4863
786.59	96.5071
786.70	97.0870
786.82	97.1418
786.93	97.0534
787.05	96.8124
787.17	97.0723
787.28	96.7383
787.40	96.6742
787.51	97.0919
787.63	96.8775
787.75	96.4715
787.86	96.7751
787.98	96.9819
788.09	96.3971
788.21	96.5546
788.33	97.2957
788.44	97.0901
788.56	97.3531
788.67	97.4778
788.79	97.7316
788.91	97.6191
789.02	97.2171
789.14	96.7566
789.25	97.0474
789.37	96.8095
789.48	96.7411
789.60	97.0043
789.72	96.7266
789.83	96.9142
789.95	97.2580
790.06	96.5622
790.18	96.5591
790.30	96.8523
790.41	96.5277
790.53	96.3722
790.64	96.7054
790.76	96.9435
790.87	96.8401
790.99	96.7851
791.11	96.7391
791.22	96.5327
791.34	96.4794
791.45	96.7809
791.57	96.9648
791.68	96.3880
791.80	96.5575
791.92	96.8025
792.03	96.7889
792.15	96.7132
792.26	96.9188
792.38	96.8252
792.49	96.7124
792.61	96.8432
792.73	97.3316
792.84	99.2982
792.96	94.6696
793.07	95.3145
793.19	96.3192
793.30	96.5905
793.42	95.5387
793.54	99.4482
793.65	99.0582
793.77	98.3762
793.88	97.5455
794.00	97.0497
794.11	97.6461
794.23	97.7505
794.34	97.8520
794.46	96.9673
794.58	96.4125
794.69	97.3951
794.81	97.5609
794.92	96.0867
795.04	96.5613
795.15	96.8690
795.27	96.6092
795.39	96.2997
795.50	97.3849
795.62	97.9287
795.73	98.0228
795.85	97.2487
795.96	97.4094
796.08	97.3376
796.19	97.4366
796.31	97.4880
796.42	97.5700
796.54	97.5960
796.66	98.0507
796.77	97.2131
796.89	97.7162
797.00	98.2687
797.12	97.6503
797.23	96.9439
797.35	97.3724
797.46	96.7180
797.58	96.7327
797.69	97.0388
797.81	97.3823
797.93	97.6590
798.04	97.4103
798.16	97.4875
798.27	97.5913
798.39	97.7031
798.50	97.8201
798.62	97.5040
798.73	97.4099
798.85	97.2538
798.96	96.5462
799.08	96.1881
799.19	96.9717
799.31	97.2755
799.43	97.2245
799.54	97.1236
799.66	97.4178
799.77	98.0433
799.89	97.6309
800.00	97.0831
800.12	96.9633
800.23	97.2129
800.35	96.8197
800.46	96.2970
800.58	96.6446
800.69	97.2677
800.81	96.4118
800.92	96.3740
801.04	97.1828
801.16	97.5232
801.27	97.5200
801.39	98.0781
801.50	97.5389
801.62	97.0549
801.73	97.5151
801.85	97.3796
801.96	96.9394
802.08	97.8144
802.19	98.0808
802.31	96.9894
802.42	96.9137
802.54	97.7267
802.65	96.9305
802.77	97.5810
802.88	97.4639
803.00	97.9560
803.11	97.7341
803.23	97.8026
803.34	97.3687
803.46	97.5713
803.57	97.6429
803.69	97.0152
803.80	97.2838
803.92	96.9612
804.03	97.0591
804.15	96.5304
804.26	97.3272
804.38	97.0549
804.50	96.8290
804.61	96.9170
804.73	97.6274
804.84	97.1887
804.96	97.3760
805.07	97.4279
805.19	97.3097
805.30	96.9360
805.42	96.9467
805.53	97.1355
805.65	97.6243
805.76	97.8152
805.88	97.4701
805.99	97.6814
806.11	97.3952
806.22	97.0838
806.34	97.2134
806.45	96.9355
806.57	97.0718
806.68	96.8354
806.80	96.5487
806.91	96.8647
807.03	97.4823
807.14	97.3661
807.26	97.3094
807.37	98.0507
807.49	97.4317
807.60	96.7683
807.72	96.8629
807.83	97.4300
807.95	96.9732
808.06	96.9290
808.17	97.7540
808.29	97.3980
808.40	96.8750
808.52	96.5733
808.63	97.0791
808.75	96.4705
808.86	96.5611
808.98	96.6374
809.09	97.0512
809.21	96.6498
809.32	97.6084
809.44	97.4274
809.55	98.0303
809.67	97.5596
809.78	97.1791
809.90	96.8009
810.01	96.1768
810.13	96.0677
810.24	96.7063
810.36	97.3353
810.47	96.7252
810.59	96.8312
810.70	96.9826
810.82	97.0354
810.93	97.2017
811.05	97.7149
811.16	98.0280
811.27	96.7245
811.39	96.8319
811.50	97.6113
811.62	97.1596
811.73	97.2354
811.85	97.9817
811.96	97.7447
812.08	97.1008
812.19	97.5514
812.31	98.3610
812.42	98.3843
812.54	97.7214
812.65	97.3691
812.77	97.1479
812.88	96.5970
813.00	97.3391
813.11	97.9874
813.22	98.3476
813.34	97.4438
813.45	96.5296
813.57	96.3556
813.68	97.0539
813.80	97.3070
813.91	96.9953
814.03	98.2718
814.14	97.6445
814.26	96.4817
814.37	96.3216
814.49	97.5348
814.60	96.7022
814.71	97.2348
814.83	97.4970
814.94	96.7793
815.06	97.3765
815.17	98.7569
815.29	97.1329
815.40	97.4475
815.52	98.4887
815.63	97.6144
815.75	97.6135
815.86	98.8189
815.97	98.0526
816.09	97.1299
816.20	98.9304
816.32	98.0781
816.43	98.7549
816.55	97.9584
816.66	98.8092
816.78	97.6632
816.89	98.3550
817.00	98.5035
817.12	98.8912
817.23	98.3783
817.35	99.3348
817.46	97.3542
817.58	97.2610
817.69	98.2544
817.81	98.1123
817.92	96.6686
818.03	98.7272
818.15	98.7558
818.26	98.7219
818.38	104.7165
818.49	112.8303
818.61	95.0773
818.72	98.5672
818.83	107.3986
818.95	103.2313
819.06	94.3670
819.18	113.3304
819.29	109.2301
819.41	100.0018
819.52	98.5491
819.64	100.5569
819.75	100.3671
819.86	98.7841
819.98	99.0356
820.09	99.9164
820.21	97.6514
820.32	95.7354
820.44	98.8765
820.55	98.7403
820.66	97.8618
820.78	98.3245
820.89	100.2359
821.01	98.4107
821.12	100.2507
821.23	97.8054
821.35	97.7961
821.46	99.5438
821.58	101.0734
821.69	97.9649
821.81	99.5969
821.92	98.7319
822.03	98.9924
822.15	98.6480
822.26	98.5915
822.38	98.6334
822.49	99.5665
822.61	96.5346
822.72	95.9656
822.83	99.5384
822.95	99.0553
823.06	97.6699
823.18	98.8612
823.29	100.5733
823.40	103.3852
823.52	99.6805
823.63	102.1633
823.75	106.3731
823.86	101.1381
823.97	98.6182
824.09	103.2858
824.20	104.2584
824.32	99.8383
824.43	98.7363
824.55	99.4236
824.66	101.4602
824.77	97.3135
824.89	98.6032
825.00	101.4891
825.12	100.3162
825.23	100.9983
825.34	98.8100
825.46	97.7108
825.57	104.2560
825.69	102.0095
825.80	102.4448
825.91	104.4011
826.03	107.3433
826.14	100.4787
826.26	100.6178
826.37	96.5220
826.48	104.8571
826.60	101.2268
826.71	102.6036
826.83	95.2814
826.94	93.5371
827.05	92.7536
827.17	95.7941
827.28	100.5216
827.39	107.2436
827.51	111.4759
827.62	109.9809
827.74	117.5114
827.85	117.4008
827.96	101.8673
828.08	115.0845
828.19	149.0615
828.31	130.2112
828.42	114.7525
828.53	127.5832
828.65	32.7947
828.76	0.0000
828.87	0.0000
828.99	0.0000
