Wavelength (nm)	Reflectance (%)
377.35	0.0000
377.48	0.0000
377.62	0.0000
377.75	99.2340
377.88	0.0000
378.02	96.6667
378.15	200.0000
378.28	200.0000
378.41	0.0000
378.55	200.0000
378.68	47.0000
378.81	200.0000
378.95	200.0000
379.08	200.0000
379.21	200.0000
379.35	89.2903
379.48	133.1163
379.61	137.6828
379.74	79.6996
379.88	0.0000
380.01	31.6804
380.14	60.2825
380.28	12.5367
380.41	4.3789
380.54	88.3607
380.68	83.3899
380.81	34.1320
380.94	17.3488
381.07	46.7756
381.21	53.9075
381.34	0.0000
381.47	17.4373
381.61	82.1670
381.74	63.0507
381.87	0.0000
382.00	51.3829
382.14	76.6506
382.27	10.9540
382.40	0.0000
382.54	39.9744
382.67	45.7763
382.80	8.2196
382.93	30.1404
383.07	42.2357
383.20	39.1433
383.33	64.9211
383.47	27.0621
383.60	26.9259
383.73	57.1049
383.86	54.9055
384.00	12.4587
384.13	48.2840
384.26	56.9188
384.40	23.8904
384.53	6.7195
384.66	23.3100
384.79	42.4410
384.93	35.3451
385.06	16.4885
385.19	22.6199
385.33	28.5854
385.46	6.0918
385.59	17.4865
385.72	52.9688
385.86	42.7933
385.99	40.0277
386.12	40.1190
386.25	12.0219
386.39	19.2713
386.52	35.7836
386.65	28.4513
386.79	7.1609
386.92	39.9457
387.05	46.3838
387.18	20.7251
387.32	13.6303
387.45	54.0997
387.58	45.2232
387.71	27.4326
387.85	32.6471
387.98	31.2520
388.11	30.0613
388.25	16.0591
388.38	6.4021
388.51	17.3106
388.64	40.9215
388.78	41.6417
388.91	15.0749
389.04	37.3517
389.17	32.0316
389.31	0.0000
389.44	0.0000
389.57	25.0488
389.70	22.6305
389.84	29.2751
389.97	32.7617
390.10	40.3408
390.24	44.0188
390.37	22.6958
390.50	19.9633
390.63	26.2986
390.77	17.6261
390.90	18.9285
391.03	36.2785
391.16	28.3775
391.30	30.6520
391.43	45.8256
391.56	23.6844
391.69	25.8527
391.83	43.0815
391.96	20.9946
392.09	10.9044
392.22	40.6541
392.36	43.5814
392.49	14.7216
392.62	18.1266
392.75	27.5919
392.89	20.3137
393.02	24.2806
393.15	10.8483
393.28	33.8931
393.42	24.1892
393.55	24.2427
393.68	12.7128
393.81	37.3458
393.95	36.5386
394.08	32.8776
394.21	24.4079
394.34	24.0220
394.48	27.1745
394.61	17.4026
394.74	22.2773
394.87	18.8984
395.01	35.5884
395.14	18.7598
395.27	5.1281
395.40	15.1390
395.54	23.2439
395.67	1.4229
395.80	16.2812
395.93	32.0433
396.07	30.7344
396.20	26.2339
396.33	28.8684
396.46	30.4502
396.59	36.4800
396.73	17.7197
396.86	14.9771
396.99	32.2435
397.12	47.2498
397.26	0.0000
397.39	4.1345
397.52	24.7793
397.65	19.6835
397.79	0.0000
397.92	38.9357
398.05	51.0906
398.18	28.3896
398.32	16.1946
398.45	21.3983
398.58	26.4840
398.71	18.3048
398.84	16.5894
398.98	16.8822
399.11	24.1115
399.24	19.6243
399.37	20.5885
399.51	26.7270
399.64	28.7902
399.77	26.0579
399.90	30.8406
400.03	20.8436
400.17	14.6555
400.30	16.0652
400.43	16.9524
400.56	10.3172
400.70	24.5236
400.83	29.6306
400.96	30.2259
401.09	22.5556
401.23	24.3642
401.36	19.1101
401.49	20.0209
401.62	24.2769
401.75	32.5311
401.89	26.0369
402.02	24.3268
402.15	24.2297
402.28	25.5159
402.41	28.5566
402.55	20.6685
402.68	19.1160
402.81	26.1372
402.94	28.3763
403.08	18.7595
403.21	24.2012
403.34	34.4279
403.47	24.8202
403.60	13.2877
403.74	21.0137
403.87	23.7739
404.00	22.0839
404.13	29.2844
404.26	29.0108
404.40	26.3801
404.53	33.7482
404.66	22.2199
404.79	17.2077
404.93	30.9093
405.06	28.5671
405.19	17.8521
405.32	20.4606
405.45	26.9745
405.59	27.7101
405.72	5.5852
405.85	16.5457
405.98	28.0450
406.11	22.5991
406.25	6.9693
406.38	28.1717
406.51	25.4793
406.64	20.9287
406.77	16.2364
406.91	23.3654
407.04	25.1590
407.17	23.9518
407.30	12.2947
407.43	10.3293
407.57	16.4606
407.70	17.7084
407.83	19.8927
407.96	15.7653
408.09	26.1996
408.23	26.9735
408.36	11.6510
408.49	7.0353
408.62	26.8810
408.75	21.7121
408.89	16.8309
409.02	22.3774
409.15	22.0044
409.28	24.8350
409.41	12.2764
409.55	10.9414
409.68	26.3869
409.81	22.9394
409.94	13.1510
410.07	29.7981
410.20	30.0373
410.34	21.1585
410.47	20.2339
410.60	25.4738
410.73	21.1304
410.86	23.4626
411.00	23.4546
411.13	26.6837
411.26	18.8883
411.39	19.7825
411.52	16.9208
411.66	20.2733
411.79	18.5615
411.92	23.9961
412.05	24.1915
412.18	19.0778
412.31	12.8387
412.45	23.4331
412.58	22.1356
412.71	15.0757
412.84	24.0573
412.97	31.7052
413.11	22.3723
413.24	11.4743
413.37	21.5701
413.50	23.1641
413.63	15.2950
413.76	14.4993
413.90	26.4342
414.03	23.2855
414.16	20.3933
414.29	13.7653
414.42	19.7109
414.56	18.1350
414.69	18.8409
414.82	15.5476
414.95	24.0961
415.08	17.4007
415.21	27.2820
415.35	21.6628
415.48	16.0800
415.61	26.7701
415.74	32.2673
415.87	8.7964
416.00	15.3059
416.14	27.9093
416.27	19.1803
416.40	13.5494
416.53	25.8580
416.66	28.0811
416.79	19.0449
416.93	18.3280
417.06	20.0720
417.19	21.6591
417.32	23.4543
417.45	19.1067
417.58	21.2299
417.72	22.5219
417.85	17.6956
417.98	14.4083
418.11	21.7990
418.24	19.3168
418.37	18.0964
418.51	14.3189
418.64	12.8726
418.77	18.2518
418.90	18.1326
419.03	13.5016
419.16	24.0885
419.29	31.1237
419.43	14.7729
419.56	13.4730
419.69	23.2100
419.82	21.0129
419.95	12.9276
420.08	15.5592
420.22	15.9653
420.35	13.6919
420.48	17.6398
420.61	14.7445
420.74	24.9289
420.87	29.8241
421.00	24.3505
421.14	14.5314
421.27	18.5315
421.40	16.9677
421.53	13.8748
421.66	16.9414
421.79	21.3227
421.93	25.3354
422.06	21.3273
422.19	18.3150
422.32	18.6991
422.45	22.6606
422.58	16.3147
422.71	14.4447
422.85	20.7232
422.98	23.0422
423.11	19.5051
423.24	22.4769
423.37	24.0773
423.50	20.9953
423.63	20.0328
423.77	18.0311
423.90	13.5135
424.03	15.1307
424.16	18.5451
424.29	17.8994
424.42	21.2352
424.55	21.6446
424.69	20.7142
424.82	20.4666
424.95	15.6081
425.08	15.1145
425.21	17.3464
425.34	16.5375
425.47	16.6344
425.60	21.0534
425.74	19.5371
425.87	18.7939
426.00	22.7922
426.13	20.9489
426.26	21.0841
426.39	17.1619
426.52	19.1429
426.66	24.2166
426.79	16.6334
426.92	12.5801
427.05	19.8932
427.18	20.4756
427.31	15.6621
427.44	19.9198
427.57	25.2684
427.71	23.3084
427.84	17.2932
427.97	14.3601
428.10	19.3075
428.23	25.9380
428.36	16.5104
428.49	14.9546
428.62	18.2364
428.76	21.5854
428.89	14.3258
429.02	15.8710
429.15	24.4316
429.28	24.0779
429.41	19.2936
429.54	14.9965
429.67	22.3139
429.81	22.1501
429.94	18.0276
430.07	12.2689
430.20	17.9852
430.33	18.8334
430.46	15.5444
430.59	20.2984
430.72	24.2807
430.85	23.3846
430.99	19.0096
431.12	16.6557
431.25	16.9675
431.38	20.3740
431.51	14.5230
431.64	14.1938
431.77	18.5374
431.90	19.5074
432.03	15.9966
432.17	18.6877
432.30	23.0400
432.43	21.7811
432.56	17.7911
432.69	15.1138
432.82	16.4658
432.95	15.5003
433.08	15.8675
433.21	16.4588
433.35	21.3850
433.48	20.3760
433.61	21.3129
433.74	18.9780
433.87	20.7312
434.00	19.4081
434.13	19.4232
434.26	17.2122
434.39	20.4637
434.53	20.0052
434.66	21.5618
434.79	18.2432
434.92	21.4081
435.05	20.6778
435.18	15.6948
435.31	13.2787
435.44	18.0702
435.57	19.6211
435.70	17.4604
435.84	15.0820
435.97	18.5272
436.10	20.7566
436.23	17.7607
436.36	19.5939
436.49	26.0577
436.62	21.7144
436.75	18.4338
436.88	19.1110
437.01	22.1356
437.14	22.5178
437.28	20.3327
437.41	18.7113
437.54	21.0142
437.67	23.1303
437.80	14.3917
437.93	15.6567
438.06	21.5589
438.19	21.2412
438.32	15.8528
438.45	19.9786
438.58	21.6253
438.72	20.1994
438.85	17.9777
438.98	16.4563
439.11	18.4842
439.24	19.6091
439.37	14.9181
439.50	15.7997
439.63	20.0046
439.76	22.4841
439.89	21.6230
440.02	20.4700
440.15	20.3595
440.29	21.7124
440.42	18.5873
440.55	14.1808
440.68	20.2586
440.81	21.6527
440.94	14.4841
441.07	15.6933
441.20	22.1857
441.33	19.6965
441.46	17.1128
441.59	21.0062
441.72	21.9534
441.85	20.3004
441.99	17.6679
442.12	17.5077
442.25	16.9055
442.38	18.9783
442.51	17.9034
442.64	18.8631
442.77	19.9269
442.90	21.0694
443.03	18.0496
443.16	16.0524
443.29	18.2056
443.42	16.5532
443.55	17.5014
443.68	18.0879
443.82	20.9653
443.95	18.9376
444.08	20.5224
444.21	18.8964
444.34	18.7726
444.47	18.4047
444.60	20.1589
444.73	16.5768
444.86	16.0296
444.99	16.8829
445.12	17.6752
445.25	15.4128
445.38	16.8133
445.51	19.0984
445.64	22.5640
445.78	16.4832
445.91	16.1378
446.04	20.8838
446.17	17.4946
446.30	12.0466
446.43	18.9808
446.56	22.0587
446.69	16.5092
446.82	16.2226
446.95	18.5727
447.08	19.0020
447.21	16.8987
447.34	18.2932
447.47	20.9978
447.60	18.4001
447.73	17.0991
447.86	18.2929
447.99	17.7938
448.13	18.0132
448.26	18.3231
448.39	16.5121
448.52	16.5313
448.65	17.9566
448.78	15.6446
448.91	18.2898
449.04	18.6765
449.17	18.0755
449.30	18.5301
449.43	17.2387
449.56	16.4808
449.69	20.4231
449.82	18.2813
449.95	16.3044
450.08	19.6359
450.21	20.1512
450.34	15.9410
450.47	18.3220
450.60	20.3172
450.73	20.4980
450.87	18.8824
451.00	14.8472
451.13	17.0660
451.26	16.4960
451.39	15.7122
451.52	16.7973
451.65	22.5993
451.78	22.7498
451.91	19.9155
452.04	17.4418
452.17	19.0481
452.30	19.1047
452.43	14.9577
452.56	19.0121
452.69	18.8713
452.82	17.4748
452.95	18.7745
453.08	18.5256
453.21	18.7450
453.34	20.5720
453.47	17.3639
453.60	15.7275
453.73	18.3801
453.86	16.7723
453.99	17.4048
454.12	18.9499
454.25	19.1668
454.38	17.9954
454.52	17.8425
454.65	18.5186
454.78	18.7624
454.91	18.5293
455.04	19.5037
455.17	16.7553
455.30	16.3377
455.43	19.2903
455.56	17.1842
455.69	15.7186
455.82	19.4273
455.95	19.2743
456.08	17.2821
456.21	19.8113
456.34	19.9126
456.47	19.3091
456.60	18.9439
456.73	17.2986
456.86	17.5800
456.99	19.2639
457.12	17.2823
457.25	16.6916
457.38	17.9946
457.51	17.4275
457.64	16.5468
457.77	18.5613
457.90	19.3592
458.03	18.7236
458.16	17.7602
458.29	18.5566
458.42	18.8849
458.55	19.5072
458.68	18.4538
458.81	15.6969
458.94	17.5184
459.07	19.1102
459.20	17.2211
459.33	16.6934
459.46	19.4615
459.59	18.9157
459.72	14.8303
459.85	15.2933
459.98	17.8205
460.11	19.8724
460.24	16.0597
460.37	17.2646
460.50	18.3728
460.63	18.3040
460.76	15.8456
460.89	16.9943
461.02	18.3724
461.15	18.4241
461.28	15.6007
461.41	17.5721
461.54	18.7095
461.67	16.6151
461.80	15.8975
461.93	17.3455
462.06	16.9789
462.19	17.3749
462.32	17.5798
462.45	17.9266
462.58	18.4478
462.71	18.8012
462.84	17.8884
462.97	18.4635
463.10	17.1876
463.23	17.2893
463.36	17.3989
463.49	16.3530
463.62	16.3158
463.75	17.5518
463.88	19.1593
464.01	15.4577
464.14	17.2175
464.27	18.4507
464.40	17.7249
464.53	16.0839
464.66	17.7103
464.79	17.6979
464.92	16.5772
465.05	16.8639
465.18	17.0310
465.31	18.6785
465.44	18.7325
465.57	16.4371
465.70	17.1859
465.83	19.2026
465.96	17.2902
466.09	16.2680
466.22	19.6676
466.35	19.6836
466.48	18.1323
466.61	18.4439
466.74	18.2146
466.87	17.1525
467.00	15.9474
467.13	16.7764
467.26	18.4032
467.39	19.0649
467.52	17.4496
467.65	18.4576
467.78	17.2641
467.91	16.1963
468.04	15.9847
468.17	18.4304
468.30	18.5558
468.43	17.8162
468.56	16.8259
468.69	17.9663
468.82	17.6326
468.95	17.7309
469.08	18.6676
469.21	18.1415
469.34	16.3260
469.47	16.8699
469.60	16.6164
469.73	15.8393
469.86	18.4399
469.99	19.8254
470.11	18.0217
470.24	17.4559
470.37	18.7217
470.50	18.2450
470.63	17.2638
470.76	16.2896
470.89	18.0723
471.02	18.5012
471.15	16.1118
471.28	16.0993
471.41	18.5644
471.54	18.5919
471.67	16.6957
471.80	17.9752
471.93	19.0201
472.06	19.6336
472.19	16.7001
472.32	17.0801
472.45	17.7706
472.58	17.2303
472.71	16.5045
472.84	18.4325
472.97	17.8755
473.10	18.9319
473.23	18.3752
473.36	17.7825
473.49	17.5460
473.62	18.1199
473.74	17.5986
473.87	18.9551
474.00	18.7212
474.13	17.9094
474.26	18.7137
474.39	18.2852
474.52	17.3260
474.65	19.0014
474.78	19.8247
474.91	17.8334
475.04	17.8199
475.17	18.4513
475.30	16.6072
475.43	16.5348
475.56	18.0399
475.69	18.6051
475.82	17.5717
475.95	18.5781
476.08	18.3778
476.21	18.3761
476.34	16.8011
476.46	17.9474
476.59	17.9082
476.72	18.7921
476.85	17.8223
476.98	18.2168
477.11	18.4700
477.24	18.0970
477.37	16.6839
477.50	17.9372
477.63	18.8569
477.76	18.3392
477.89	18.0740
478.02	18.8289
478.15	18.5290
478.28	18.4599
478.41	17.7756
478.54	18.2738
478.66	18.4450
478.79	18.6808
478.92	17.9935
479.05	18.6488
479.18	18.4631
479.31	18.4602
479.44	18.4410
479.57	18.5133
479.70	18.9794
479.83	19.4766
479.96	18.1491
480.09	17.6282
480.22	18.1216
480.35	17.9252
480.48	18.0441
480.60	18.8845
480.73	19.6332
480.86	19.7090
480.99	19.3961
481.12	18.1435
481.25	18.8061
481.38	18.7264
481.51	18.1172
481.64	18.2193
481.77	19.0813
481.90	19.0328
482.03	18.3908
482.16	18.8343
482.29	18.8344
482.41	19.3560
482.54	19.2502
482.67	19.4714
482.80	20.2157
482.93	19.6633
483.06	19.0309
483.19	19.4085
483.32	20.0598
483.45	19.0484
483.58	19.2895
483.71	19.2769
483.84	18.9008
483.97	18.7306
484.09	19.0541
484.22	19.6599
484.35	19.8844
484.48	19.7950
484.61	19.6288
484.74	19.9555
484.87	19.4141
485.00	19.7870
485.13	19.8798
485.26	20.2890
485.39	19.4660
485.52	19.5777
485.64	19.0105
485.77	19.6717
485.90	19.3564
486.03	20.3474
486.16	20.7111
486.29	20.9405
486.42	20.7092
486.55	20.5834
486.68	20.2083
486.81	20.4284
486.94	20.2473
487.06	19.9124
487.19	20.3238
487.32	20.5657
487.45	20.3321
487.58	21.0619
487.71	20.9729
487.84	20.4233
487.97	20.4555
488.10	20.9137
488.23	20.3886
488.35	20.9775
488.48	21.6422
488.61	21.9370
488.74	21.7804
488.87	21.4511
489.00	21.3346
489.13	21.5321
489.26	21.2528
489.39	21.1357
489.52	21.8373
489.64	21.8200
489.77	21.8465
489.90	21.9688
490.03	22.1589
490.16	22.2230
490.29	22.0617
490.42	22.1677
490.55	22.2879
490.68	22.8781
490.81	22.4286
490.93	22.8068
491.06	22.7392
491.19	22.3589
491.32	22.3032
491.45	22.8862
491.58	23.1109
491.71	23.5757
491.84	23.6453
491.97	23.3153
492.09	23.6328
492.22	23.2889
492.35	23.1634
492.48	23.8784
492.61	23.7832
492.74	23.5043
492.87	24.0611
493.00	23.8685
493.12	23.5649
493.25	24.0487
493.38	24.7031
493.51	24.6214
493.64	24.8187
493.77	25.3086
493.90	24.9892
494.03	24.4619
494.16	24.9944
494.28	25.6376
494.41	24.8570
494.54	24.9067
494.67	25.7537
494.80	25.4383
494.93	25.0277
495.06	25.9314
495.19	26.5652
495.31	26.4066
495.44	26.2323
495.57	26.4958
495.70	26.9923
495.83	27.1154
495.96	26.6940
496.09	26.7426
496.22	27.3696
496.34	27.2038
496.47	26.9076
496.60	27.0816
496.73	27.8876
496.86	27.3672
496.99	27.7355
497.12	27.9809
497.24	28.2682
497.37	28.3297
497.50	28.7873
497.63	28.0143
497.76	27.9326
497.89	29.0035
498.02	29.1345
498.15	28.8513
498.27	29.2715
498.40	29.7769
498.53	29.0569
498.66	29.4377
498.79	29.7014
498.92	30.1529
499.05	30.4218
499.17	30.1552
499.30	29.8053
499.43	30.5232
499.56	30.3950
499.69	30.3933
499.82	31.2851
499.95	31.7237
500.07	31.5095
500.20	31.1787
500.33	31.6873
500.46	32.0893
500.59	32.1367
500.72	32.1248
500.85	32.8625
500.97	33.2398
501.10	33.0930
501.23	32.7645
501.36	33.0396
501.49	33.4568
501.62	32.7365
501.75	33.1863
501.87	33.6043
502.00	33.5128
502.13	33.6610
502.26	34.1534
502.39	34.2344
502.52	34.6155
502.64	34.6676
502.77	34.7336
502.90	35.2507
503.03	35.4014
503.16	35.2500
503.29	35.8450
503.42	36.2669
503.54	36.3265
503.67	35.9036
503.80	36.8170
503.93	37.1251
504.06	36.7512
504.19	36.8636
504.31	37.3022
504.44	36.9231
504.57	37.2420
504.70	37.5865
504.83	37.7667
504.96	38.0954
505.08	37.7890
505.21	37.5604
505.34	38.0399
505.47	38.1691
505.60	38.4085
505.73	38.5006
505.85	39.0116
505.98	39.4047
506.11	39.6817
506.24	39.6637
506.37	40.1445
506.50	40.2265
506.62	40.1754
506.75	39.9441
506.88	40.3514
507.01	40.8040
507.14	40.9021
507.27	41.0263
507.39	41.4682
507.52	41.1786
507.65	41.7098
507.78	41.5753
507.91	41.4158
508.04	41.5000
508.16	41.9613
508.29	42.1345
508.42	42.7078
508.55	42.5615
508.68	42.9302
508.81	43.2539
508.93	42.9859
509.06	42.8739
509.19	43.5515
509.32	43.4034
509.45	43.4912
509.57	43.6360
509.70	43.9637
509.83	44.0579
509.96	44.3383
510.09	44.4496
510.22	44.8713
510.34	44.4152
510.47	44.6510
510.60	44.7419
510.73	44.8389
510.86	45.0153
510.98	45.4852
511.11	45.4756
511.24	45.8464
511.37	45.9509
511.50	45.8788
511.63	46.1595
511.75	46.2505
511.88	46.1814
512.01	46.1462
512.14	46.2790
512.27	46.3418
512.39	46.4833
512.52	46.7356
512.65	46.9512
512.78	46.8986
512.91	46.8009
513.03	46.8110
513.16	46.8842
513.29	47.0733
513.42	47.0754
513.55	47.6895
513.67	48.0978
513.80	48.0094
513.93	47.8178
514.06	48.1306
514.19	47.7990
514.31	48.0272
514.44	48.2103
514.57	48.1824
514.70	48.5902
514.83	48.9795
514.95	48.7286
515.08	48.8123
515.21	49.2339
515.34	49.2798
515.47	49.2176
515.59	49.3848
515.72	49.1850
515.85	49.3952
515.98	49.2403
516.11	49.1501
516.23	49.4001
516.36	50.0311
516.49	49.8069
516.62	49.6283
516.75	50.2963
516.87	50.2154
517.00	49.6367
517.13	49.8098
517.26	50.6388
517.39	50.2408
517.51	49.8358
517.64	50.4715
517.77	50.4995
517.90	50.1447
518.02	50.6266
518.15	51.0602
518.28	50.8438
518.41	50.9199
518.54	51.0482
518.66	50.9567
518.79	51.1733
518.92	51.2288
519.05	51.0712
519.18	51.1058
519.30	51.0770
519.43	51.1316
519.56	50.9814
519.69	51.4391
519.81	51.7193
519.94	51.7480
520.07	51.6971
520.20	51.8582
520.33	51.9120
520.45	51.6985
520.58	51.5580
520.71	51.6531
520.84	52.0781
520.96	52.2151
521.09	52.0731
521.22	52.1739
521.35	52.5313
521.48	52.6300
521.60	52.4422
521.73	52.2552
521.86	52.5113
521.99	52.4531
522.11	52.1253
522.24	52.2194
522.37	52.2252
522.50	52.4903
522.62	52.3439
522.75	52.6323
522.88	52.6066
523.01	52.9314
523.14	52.3748
523.26	52.7717
523.39	52.4532
523.52	52.5858
523.65	52.8881
523.77	53.2456
523.90	52.9155
524.03	53.2135
524.16	53.2748
524.28	53.1380
524.41	53.3554
524.54	53.4968
524.67	53.3209
524.79	52.9772
524.92	53.2503
525.05	52.9684
525.18	53.1909
525.31	52.7793
525.43	53.3614
525.56	53.7278
525.69	53.6735
525.82	53.3110
525.94	54.1083
526.07	54.0982
526.20	53.3198
526.33	53.3864
526.45	53.6520
526.58	53.6927
526.71	53.4736
526.84	53.9484
526.96	54.0062
527.09	53.9909
527.22	54.0871
527.35	53.7312
527.47	53.7335
527.60	53.6728
527.73	53.4836
527.86	53.2614
527.98	53.8452
528.11	53.5807
528.24	53.9960
528.37	54.1158
528.49	53.8646
528.62	54.1071
528.75	54.3603
528.88	54.1375
529.00	54.4826
529.13	55.0215
529.26	54.4186
529.39	54.1850
529.51	54.5949
529.64	54.4638
529.77	54.1905
529.90	54.5264
530.02	54.9656
530.15	54.7045
530.28	54.6292
530.40	54.6709
530.53	54.8751
530.66	54.5869
530.79	54.6824
530.91	54.7173
531.04	54.8431
531.17	54.6933
531.30	54.8330
531.42	54.3541
531.55	54.5806
531.68	54.7182
531.81	54.7271
531.93	54.9327
532.06	55.3221
532.19	55.0800
532.31	54.8188
532.44	55.0415
532.57	54.8943
532.70	54.7756
532.82	54.6352
532.95	54.7018
533.08	54.7090
533.21	54.8954
533.33	55.1645
533.46	54.9379
533.59	55.1647
533.71	55.1985
533.84	55.1088
533.97	55.0579
534.10	55.4416
534.22	55.3048
534.35	54.9233
534.48	54.9906
534.61	55.1338
534.73	55.1366
534.86	55.0035
534.99	55.2805
535.11	55.2515
535.24	55.2879
535.37	55.5712
535.50	55.6017
535.62	55.5242
535.75	55.6078
535.88	55.4625
536.00	55.2401
536.13	55.4215
536.26	55.6499
536.39	55.3313
536.51	55.4504
536.64	55.6951
536.77	55.7300
536.89	55.5763
537.02	55.8292
537.15	55.6898
537.28	55.7119
537.40	55.5441
537.53	55.5333
537.66	55.7186
537.78	55.9620
537.91	55.9059
538.04	56.4030
538.17	56.3354
538.29	55.9452
538.42	55.8349
538.55	56.0397
538.67	55.7942
538.80	56.1730
538.93	56.2220
539.05	56.1581
539.18	55.9579
539.31	56.3043
539.44	56.1020
539.56	56.3355
539.69	56.6554
539.82	56.8392
539.94	56.2278
540.07	56.3660
540.20	56.4488
540.32	56.2451
540.45	55.8349
540.58	56.4023
540.71	56.5259
540.83	56.5534
540.96	56.3055
541.09	56.4022
541.21	56.5325
541.34	56.6120
541.47	56.4946
541.59	56.4532
541.72	56.7694
541.85	56.9338
541.98	56.9244
542.10	56.6013
542.23	57.0128
542.36	57.0537
542.48	56.8002
542.61	56.5919
542.74	57.0652
542.86	57.1759
542.99	57.0501
543.12	57.1350
543.24	57.1536
543.37	57.1696
543.50	57.0718
543.62	57.3081
543.75	57.2153
543.88	57.1879
544.01	57.0639
544.13	57.1794
544.26	57.0936
544.39	57.0340
544.51	57.0550
544.64	57.3165
544.77	57.1913
544.89	57.3606
545.02	57.1830
545.15	57.0989
545.27	57.0675
545.40	57.1042
545.53	57.2816
545.65	57.7964
545.78	58.1164
545.91	58.0424
546.03	58.2910
546.16	58.1411
546.29	57.9496
546.41	58.1361
546.54	58.0963
546.67	57.7492
546.79	57.9443
546.92	57.8966
547.05	57.7878
547.17	57.8807
547.30	58.2942
547.43	58.0328
547.56	58.2574
547.68	58.1997
547.81	58.3333
547.94	58.4045
548.06	58.2795
548.19	58.2964
548.32	58.5265
548.44	58.4857
548.57	58.1737
548.70	58.4008
548.82	58.4780
548.95	58.5656
549.08	58.3553
549.20	58.6411
549.33	58.8555
549.45	59.0728
549.58	58.8515
549.71	59.5018
549.83	59.4934
549.96	59.3925
550.09	59.0768
550.21	59.3062
550.34	59.0844
550.47	59.4753
550.59	59.4927
550.72	59.2694
550.85	59.3843
550.97	59.5936
551.10	59.1196
551.23	59.1707
551.35	59.7356
551.48	59.8557
551.61	59.5552
551.73	59.7057
551.86	59.9294
551.99	59.6573
552.11	59.4397
552.24	59.8667
552.37	60.1147
552.49	60.0018
552.62	60.2817
552.75	60.5520
552.87	60.4344
553.00	60.5055
553.12	60.5733
553.25	60.4129
553.38	60.3833
553.50	60.7101
553.63	60.6431
553.76	60.7999
553.88	61.1645
554.01	61.1641
554.14	60.8210
554.26	61.0868
554.39	61.1313
554.52	61.1860
554.64	61.2648
554.77	61.4515
554.89	61.3573
555.02	61.4582
555.15	61.4478
555.27	61.2930
555.40	61.5133
555.53	61.8386
555.65	61.7140
555.78	61.5153
555.91	62.0400
556.03	62.1813
556.16	61.8733
556.29	61.8592
556.41	62.3334
556.54	62.3399
556.66	61.8816
556.79	62.0132
556.92	62.5135
557.04	62.3782
557.17	62.2782
557.30	62.7093
557.42	62.7540
557.55	62.6514
557.67	62.6964
557.80	62.7288
557.93	63.0471
558.05	63.2072
558.18	63.1304
558.31	63.1416
558.43	63.3182
558.56	63.3723
558.68	63.4913
558.81	63.3618
558.94	63.6821
559.06	63.7723
559.19	63.6942
559.32	63.6558
559.44	64.0636
559.57	64.0574
559.69	63.9700
559.82	63.9813
559.95	64.3749
560.07	64.4204
560.20	64.3227
560.33	64.7067
560.45	64.6094
560.58	64.6098
560.70	64.7804
560.83	64.9629
560.96	64.6765
561.08	65.0760
561.21	65.2580
561.33	65.0152
561.46	65.1807
561.59	65.4756
561.71	65.5573
561.84	65.3498
561.97	65.8511
562.09	65.9999
562.22	65.9365
562.34	65.9227
562.47	66.1536
562.60	66.1685
562.72	66.1330
562.85	66.3956
562.97	66.5746
563.10	66.6766
563.23	66.5977
563.35	66.6434
563.48	66.5456
563.60	66.7285
563.73	66.8424
563.86	67.0671
563.98	67.3491
564.11	67.3899
564.23	67.3851
564.36	67.2974
564.49	67.4495
564.61	67.5686
564.74	67.7304
564.86	67.7305
564.99	67.7768
565.12	67.8173
565.24	67.7441
565.37	67.7880
565.49	67.9132
565.62	68.3888
565.75	67.9728
565.87	68.0124
566.00	68.5012
566.12	68.4163
566.25	68.3092
566.38	68.7209
566.50	68.8452
566.63	68.7541
566.75	69.0542
566.88	69.0542
567.01	69.2861
567.13	69.5160
567.26	69.3428
567.38	69.4095
567.51	69.3760
567.64	69.2657
567.76	69.2713
567.89	69.6141
568.01	69.5468
568.14	69.7444
568.26	70.0476
568.39	70.0457
568.52	70.1052
568.64	70.3358
568.77	70.4449
568.89	70.6118
569.02	70.8334
569.15	70.8002
569.27	70.6821
569.40	70.7502
569.52	70.7493
569.65	70.8941
569.77	71.2131
569.90	71.2153
570.03	71.4571
570.15	71.6222
570.28	71.8291
570.40	71.7700
570.53	72.0524
570.66	72.0820
570.78	72.2037
570.91	72.0142
571.03	72.1037
571.16	72.3156
571.28	72.3421
571.41	72.4416
571.54	72.5149
571.66	72.5780
571.79	72.6594
571.91	72.6567
572.04	72.4345
572.16	72.6665
572.29	72.8158
572.42	72.9769
572.54	73.0824
572.67	73.4576
572.79	73.5355
572.92	73.5789
573.04	73.6817
573.17	74.0001
573.29	73.7322
573.42	73.6291
573.55	73.7652
573.67	73.8864
573.80	73.9337
573.92	74.1063
574.05	74.2504
574.17	74.3301
574.30	74.3657
574.43	74.2622
574.55	74.5751
574.68	74.7386
574.80	74.8972
574.93	74.9284
575.05	75.0511
575.18	74.8796
575.30	74.7375
575.43	74.7794
575.56	74.8461
575.68	75.0893
575.81	75.2118
575.93	75.4543
576.06	75.6446
576.18	75.7855
576.31	75.4069
576.43	75.5053
576.56	75.6154
576.69	75.6197
576.81	75.6027
576.94	75.9138
577.06	76.0891
577.19	76.1003
577.31	75.8896
577.44	75.9680
577.56	75.9585
577.69	76.1169
577.82	76.4799
577.94	76.5129
578.07	76.3330
578.19	76.7151
578.32	76.7611
578.44	76.5298
578.57	76.9067
578.69	77.0928
578.82	76.8727
578.94	76.8521
579.07	76.9557
579.19	76.8903
579.32	77.1429
579.45	77.4457
579.57	77.4410
579.70	77.5645
579.82	77.4272
579.95	77.4298
580.07	77.2876
580.20	77.3864
580.32	77.4130
580.45	77.6776
580.57	77.6106
580.70	77.5857
580.82	77.9431
580.95	77.7380
581.08	77.7963
581.20	77.8196
581.33	77.9707
581.45	77.5521
581.58	78.0906
581.70	78.0763
581.83	78.0983
581.95	78.2252
582.08	78.4858
582.20	78.3428
582.33	78.4926
582.45	78.5259
582.58	78.5626
582.70	78.6334
582.83	78.5855
582.95	78.5765
583.08	78.6328
583.21	78.7313
583.33	78.9967
583.46	79.0237
583.58	78.9409
583.71	79.1006
583.83	79.0925
583.96	78.8522
584.08	78.8455
584.21	79.0667
584.33	79.2404
584.46	79.0411
584.58	78.9172
584.71	79.1711
584.83	79.3721
584.96	79.1836
585.08	79.3068
585.21	79.5808
585.33	79.4550
585.46	79.4335
585.58	79.5863
585.71	79.5507
585.83	79.6072
585.96	79.5843
586.08	79.3918
586.21	79.5758
586.33	79.6960
586.46	79.7327
586.59	79.7619
586.71	79.7628
586.84	79.7562
586.96	79.8978
587.09	79.5137
587.21	79.6008
587.34	79.8249
587.46	79.5609
587.59	79.5231
587.71	80.0431
587.84	80.1626
587.96	79.9193
588.09	80.0032
588.21	80.0061
588.34	79.9236
588.46	79.9471
588.59	80.2162
588.71	80.3449
588.84	80.0688
588.96	80.0223
589.09	80.1412
589.21	80.1846
589.34	80.1055
589.46	80.4014
589.59	80.6840
589.71	80.7149
589.84	80.6136
589.96	80.5997
590.09	80.6106
590.21	80.3484
590.34	80.3774
590.46	80.4122
590.59	80.3319
590.71	80.6090
590.84	80.5291
590.96	80.3893
591.09	80.5238
591.21	80.9305
591.34	80.5614
591.46	80.6283
591.59	80.5337
591.71	80.6462
591.83	80.4884
591.96	80.7604
592.08	80.9503
592.21	81.2394
592.33	81.3037
592.46	81.3031
592.58	81.1907
592.71	81.1629
592.83	80.8485
592.96	80.7435
593.08	80.8949
593.21	81.0558
593.33	81.1070
593.46	81.1973
593.58	81.0894
593.71	81.2179
593.83	80.9522
593.96	80.9017
594.08	81.1171
594.21	81.1868
594.33	81.1935
594.46	81.6523
594.58	81.7534
594.71	81.7580
594.83	81.3675
594.96	81.1931
595.08	81.2057
595.20	81.3613
595.33	80.9505
595.45	81.3672
595.58	81.6101
595.70	81.5325
595.83	81.2894
595.95	81.7285
596.08	81.8581
596.20	81.6440
596.33	81.6423
596.45	81.8341
596.58	81.6464
596.70	81.5293
596.83	81.4632
596.95	81.5861
597.08	81.4888
597.20	81.5536
597.32	81.5623
597.45	81.6313
597.57	81.5546
597.70	81.4825
597.82	81.5919
597.95	81.5537
598.07	81.5535
598.20	81.5915
598.32	81.5625
598.45	81.3908
598.57	81.5347
598.70	81.6469
598.82	81.3670
598.94	81.3447
599.07	81.4643
599.19	81.6690
599.32	81.3531
599.44	81.4754
599.57	81.6274
599.69	81.8317
599.82	81.3428
599.94	81.5897
600.07	81.9046
600.19	82.0567
600.31	81.6769
600.44	81.8446
600.56	81.9741
600.69	81.8242
600.81	81.7314
600.94	81.8723
601.06	81.8091
601.19	81.9569
601.31	81.7409
601.44	81.6941
601.56	81.8002
601.68	81.9780
601.81	81.5813
601.93	81.9305
602.06	82.1417
602.18	81.9894
602.31	81.8685
602.43	82.0693
602.56	81.9425
602.68	81.6652
602.80	81.9709
602.93	82.0569
603.05	82.0462
603.18	82.1574
603.30	82.3485
603.43	82.1365
603.55	82.0987
603.68	82.0680
603.80	81.8944
603.92	81.7892
604.05	82.0044
604.17	82.0310
604.30	81.9698
604.42	81.8416
604.55	81.8780
604.67	81.7564
604.79	81.7413
604.92	81.8762
605.04	82.0801
605.17	82.1000
605.29	81.9208
605.42	82.0395
605.54	81.9638
605.66	81.9201
605.79	81.8489
605.91	82.1109
606.04	81.9394
606.16	81.9724
606.29	82.1215
606.41	82.3167
606.53	82.2200
606.66	82.5008
606.78	82.6480
606.91	82.5809
607.03	82.6000
607.16	82.5644
607.28	82.3468
607.40	82.3449
607.53	82.4488
607.65	82.4756
607.78	82.3888
607.90	82.6416
608.03	82.5952
608.15	82.6631
608.27	82.6446
608.40	82.9450
608.52	82.6836
608.65	82.8821
608.77	82.6579
608.89	82.3804
609.02	82.4356
609.14	82.5318
609.27	82.4703
609.39	82.9135
609.52	83.2034
609.64	83.2058
609.76	83.1533
609.89	82.8835
610.01	82.6598
610.14	82.7046
610.26	82.4417
610.38	82.6994
610.51	82.9905
610.63	82.8663
610.76	82.7946
610.88	82.7469
611.01	82.5867
611.13	82.6036
611.25	82.7042
611.38	82.7794
611.50	82.9764
611.63	83.1281
611.75	83.0470
611.87	82.8356
612.00	82.7829
612.12	83.0838
612.25	83.0547
612.37	83.1016
612.49	83.1053
612.62	83.1894
612.74	82.9702
612.87	83.1013
612.99	82.9745
613.11	82.9760
613.24	82.8995
613.36	82.9191
613.49	82.8131
613.61	82.8093
613.73	83.1647
613.86	83.3031
613.98	83.3060
614.11	83.2778
614.23	83.3775
614.35	83.3423
614.48	83.3307
614.60	83.3068
614.72	83.3941
614.85	83.4729
614.97	83.4906
615.10	83.3871
615.22	83.3964
615.34	83.5336
615.47	83.5570
615.59	83.5049
615.72	83.8183
615.84	83.6016
615.96	83.5293
616.09	83.6833
616.21	83.6220
616.34	83.3656
616.46	83.7046
616.58	83.6523
616.71	83.4749
616.83	83.4853
616.95	83.6376
617.08	83.7875
617.20	83.9949
617.33	83.9374
617.45	84.1347
617.57	84.2067
617.70	84.0702
617.82	83.8671
617.95	84.0616
618.07	83.9440
618.19	83.7568
618.32	83.8984
618.44	84.1467
618.56	84.3325
618.69	84.2358
618.81	84.4136
618.94	84.3413
619.06	84.2229
619.18	84.1693
619.31	84.2318
619.43	84.0830
619.55	84.4121
619.68	84.6204
619.80	84.2518
619.92	84.2750
620.05	84.6087
620.17	84.5927
620.30	84.3803
620.42	84.7078
620.54	84.9617
620.67	84.8759
620.79	84.4799
620.91	84.5336
621.04	84.5601
621.16	84.6725
621.29	84.6059
621.41	84.8217
621.53	85.0826
621.66	84.9534
621.78	84.5422
621.90	84.7636
622.03	84.8771
622.15	84.7344
622.27	84.9914
622.40	85.1715
622.52	85.2320
622.64	85.1928
622.77	84.9717
622.89	84.9400
623.02	85.0907
623.14	84.9450
623.26	84.8332
623.39	85.2130
623.51	85.4519
623.63	85.3322
623.76	85.3325
623.88	85.5650
624.00	85.4748
624.13	85.3111
624.25	85.3125
624.37	85.1473
624.50	85.3360
624.62	85.5455
624.75	85.3756
624.87	85.6743
624.99	85.9622
625.12	85.3770
625.24	85.1932
625.36	85.3963
625.49	85.2102
625.61	84.9671
625.73	85.4802
625.86	85.5502
625.98	85.6301
626.10	85.6216
626.23	85.8124
626.35	85.8314
626.47	85.8939
626.60	85.8934
626.72	85.9626
626.84	86.1715
626.97	86.3005
627.09	86.0372
627.21	85.8925
627.34	86.2129
627.46	86.1633
627.58	85.7952
627.71	86.3552
627.83	86.3023
627.95	85.7265
628.08	85.6823
628.20	86.0542
628.32	85.8886
628.45	86.0907
628.57	86.4587
628.69	86.3740
628.82	86.4309
628.94	86.4346
629.06	86.4207
629.19	86.6934
629.31	86.8117
629.43	86.6899
629.56	86.4987
629.68	86.6612
629.80	86.5752
629.93	86.6548
630.05	86.6525
630.17	87.0027
630.30	86.9207
630.42	87.0332
630.54	87.2448
630.67	87.0222
630.79	86.9955
630.91	87.0877
631.04	87.0413
631.16	86.9802
631.28	87.4165
631.41	87.2208
631.53	87.0686
631.65	86.8831
631.78	86.7572
631.90	86.9243
632.02	86.8922
632.14	87.1020
632.27	87.3686
632.39	87.1800
632.51	86.9759
632.64	87.2690
632.76	87.3120
632.88	87.3470
633.01	87.5669
633.13	87.1603
633.25	87.2614
633.38	87.3101
633.50	87.2311
633.62	87.4077
633.75	87.6911
633.87	87.5787
633.99	87.6945
634.11	87.6299
634.24	87.6371
634.36	87.8314
634.48	87.6610
634.61	87.7422
634.73	87.9749
634.85	88.0696
634.98	88.1575
635.10	88.0421
635.22	87.8750
635.35	88.0680
635.47	87.9840
635.59	87.8608
635.71	88.1374
635.84	88.0727
635.96	88.0042
636.08	87.9789
636.21	87.9424
636.33	88.1637
636.45	88.4445
636.58	88.0431
636.70	88.1656
636.82	88.5711
636.94	88.3597
637.07	88.1103
637.19	88.3896
637.31	88.5521
637.44	88.3147
637.56	88.4635
637.68	88.6259
637.81	89.0359
637.93	88.7543
638.05	88.3718
638.17	88.4385
638.30	88.5157
638.42	88.1378
638.54	88.2634
638.67	88.6085
638.79	88.6636
638.91	88.6510
639.03	88.7641
639.16	88.8480
639.28	89.0085
639.40	88.7172
639.53	88.6851
639.65	88.7160
639.77	88.5339
639.89	88.4053
640.02	88.7550
640.14	88.5615
640.26	88.6072
640.39	88.8265
640.51	88.7604
640.63	88.5840
640.75	88.9057
640.88	88.8537
641.00	88.4158
641.12	88.7443
641.24	89.1192
641.37	88.6992
641.49	88.8148
641.61	89.2192
641.74	89.2548
641.86	88.8773
641.98	89.2297
642.10	89.2725
642.23	89.3043
642.35	89.0378
642.47	89.0306
642.60	89.1374
642.72	89.0096
642.84	88.9344
642.96	88.9964
643.09	89.2063
643.21	89.2253
643.33	89.1918
643.45	89.0855
643.58	89.2803
643.70	89.2204
643.82	89.1504
643.94	89.2428
644.07	89.4009
644.19	89.2048
644.31	89.2989
644.44	89.3324
644.56	89.3362
644.68	89.4150
644.80	89.5727
644.93	89.4675
645.05	89.5068
645.17	89.5882
645.29	89.6335
645.42	89.4307
645.54	89.4379
645.66	89.4979
645.78	89.3708
645.91	89.1393
646.03	89.4235
646.15	89.5316
646.27	89.4613
646.40	89.3664
646.52	89.6550
646.64	89.7387
646.76	89.5700
646.89	89.4913
647.01	89.4682
647.13	89.6427
647.25	89.5241
647.38	89.5127
647.50	89.8199
647.62	90.2218
647.74	89.8622
647.87	89.6032
647.99	89.7575
648.11	89.7403
648.23	89.3871
648.36	89.5347
648.48	89.8753
648.60	90.1089
648.72	89.6758
648.85	89.8976
648.97	90.0299
649.09	90.0162
649.21	89.8542
649.34	90.1551
649.46	90.2026
649.58	90.3083
649.70	90.1216
649.83	90.0913
649.95	90.0590
650.07	90.0094
650.19	89.7535
650.32	89.8067
650.44	89.8750
650.56	89.9338
650.68	89.9934
650.81	89.9318
650.93	90.0578
651.05	89.9670
651.17	90.0113
651.29	89.9947
651.42	90.3205
651.54	90.5286
651.66	90.5271
651.78	90.0749
651.91	90.1221
652.03	90.1576
652.15	89.9916
652.27	90.2409
652.40	90.7988
652.52	91.0016
652.64	90.4966
652.76	90.4928
652.88	90.4760
653.01	90.6267
653.13	90.3147
653.25	90.5429
653.37	90.5438
653.50	90.6131
653.62	90.1125
653.74	90.0449
653.86	90.3057
653.98	90.3721
654.11	90.3222
654.23	90.3410
654.35	90.5646
654.47	90.6491
654.60	90.9307
654.72	90.6336
654.84	90.9309
654.96	90.9714
655.08	90.8512
655.21	90.4713
655.33	90.6973
655.45	90.7409
655.57	90.5305
655.70	90.2178
655.82	90.2099
655.94	90.4540
656.06	90.2025
656.18	90.2031
656.31	90.5249
656.43	90.6695
656.55	90.4342
656.67	90.4714
656.79	90.7413
656.92	90.8288
657.04	90.5219
657.16	90.6082
657.28	90.6516
657.40	90.7216
657.53	90.5507
657.65	90.5413
657.77	90.6096
657.89	90.8779
658.01	90.6090
658.14	90.6487
658.26	91.0522
658.38	90.9451
658.50	90.4313
658.62	90.6016
658.75	90.6121
658.87	90.8278
658.99	90.9060
659.11	91.0467
659.23	91.1994
659.36	91.3384
659.48	91.1716
659.60	91.2381
659.72	91.4986
659.84	91.3855
659.97	90.8531
660.09	90.5425
660.21	90.5982
660.33	90.7946
660.45	90.6461
660.58	90.8480
660.70	91.2044
660.82	90.9915
660.94	90.5964
661.06	90.5875
661.19	90.9080
661.31	90.7779
661.43	90.6420
661.55	90.6382
661.67	90.8656
661.80	90.7285
661.92	90.6952
662.04	90.7638
662.16	91.0989
662.28	91.0154
662.40	90.9831
662.53	91.1566
662.65	91.1294
662.77	91.1666
662.89	91.3411
663.01	91.4175
663.14	91.2080
663.26	91.5293
663.38	91.3428
663.50	90.9286
663.62	90.9281
663.74	91.0565
663.87	90.8040
663.99	90.4324
664.11	90.7423
664.23	90.9394
664.35	90.8115
664.48	91.0413
664.60	91.6496
664.72	91.6743
664.84	91.3241
664.96	91.4382
665.08	91.2176
665.21	91.2985
665.33	91.1488
665.45	91.1686
665.57	91.1690
665.69	91.2943
665.81	91.0849
665.94	90.9766
666.06	91.0246
666.18	91.2085
666.30	90.9698
666.42	90.7686
666.54	90.9405
666.67	90.7474
666.79	90.4550
666.91	90.7386
667.03	90.8363
667.15	90.8270
667.27	91.1679
667.40	90.9449
667.52	90.7808
667.64	91.0068
667.76	90.8491
667.88	90.5840
668.00	90.7568
668.13	90.8389
668.25	90.6712
668.37	90.5849
668.49	90.8912
668.61	91.0880
668.73	91.0288
668.85	90.8984
668.98	91.2686
669.10	91.1044
669.22	90.7570
669.34	90.9308
669.46	90.9414
669.58	90.6352
669.71	90.7699
669.83	90.9081
669.95	90.7049
670.07	90.6473
670.19	90.8699
670.31	90.7853
670.43	90.6906
670.56	90.6622
670.68	90.8799
670.80	90.4167
670.92	90.3177
671.04	90.5396
671.16	90.6397
671.28	90.3306
671.41	90.7430
671.53	91.0813
671.65	90.6859
671.77	90.4438
671.89	90.7426
672.01	90.9783
672.13	90.6669
672.26	91.1734
672.38	91.2085
672.50	90.9498
672.62	90.5164
672.74	90.5631
672.86	90.3079
672.98	90.4653
673.11	90.3595
673.23	90.5391
673.35	90.5557
673.47	90.8917
673.59	90.7734
673.71	90.5840
673.83	90.5090
673.96	90.6572
674.08	90.2485
674.20	90.2162
674.32	90.5926
674.44	90.5888
674.56	90.1471
674.68	90.0716
674.80	90.2724
674.93	90.2987
675.05	90.1766
675.17	90.2955
675.29	90.4992
675.41	90.3942
675.53	90.3877
675.65	90.2982
675.77	90.4478
675.90	90.5992
676.02	90.2890
676.14	89.9359
676.26	90.1416
676.38	90.0243
676.50	89.8692
676.62	90.3186
676.74	90.4817
676.87	90.1550
676.99	90.0322
677.11	89.9588
677.23	89.7705
677.35	90.0515
677.47	90.3474
677.59	90.3333
677.71	90.3224
677.83	90.1246
677.96	89.9324
678.08	89.9260
678.20	90.0906
678.32	90.0981
678.44	89.8540
678.56	89.7134
678.68	89.7632
678.80	89.6772
678.93	89.5501
679.05	89.6879
679.17	89.8483
679.29	89.8042
679.41	89.8394
679.53	89.8396
679.65	90.0518
679.77	89.9483
679.89	89.6095
680.01	89.8160
680.14	90.0113
680.26	89.8163
680.38	89.7221
680.50	89.9260
680.62	89.6745
680.74	89.5864
680.86	89.8074
680.98	89.5823
681.10	89.6824
681.22	89.8643
681.35	89.9913
681.47	89.4119
681.59	89.7275
681.71	89.7013
681.83	89.2651
681.95	88.7837
682.07	89.2476
682.19	89.2821
682.31	88.8991
682.43	89.1745
682.56	89.4006
682.68	89.3260
682.80	89.0586
682.92	89.3081
683.04	89.3136
683.16	89.1044
683.28	89.0979
683.40	89.1525
683.52	89.1721
683.64	89.1111
683.76	89.3014
683.89	89.1295
684.01	89.1775
684.13	89.1249
684.25	88.9519
684.37	88.9849
684.49	88.9230
684.61	88.9519
684.73	89.0880
684.85	88.9083
684.97	88.9767
685.09	89.4557
685.21	89.2010
685.34	89.1498
685.46	89.4314
685.58	89.1022
685.70	89.0515
685.82	89.3477
685.94	89.3091
686.06	89.2884
686.18	89.5234
686.30	89.2765
686.42	89.3579
686.54	89.0113
686.66	89.0171
686.79	88.6780
686.91	88.6590
687.03	88.7359
687.15	89.1392
687.27	88.9236
687.39	89.2671
687.51	89.3448
687.63	89.0899
687.75	88.7003
687.87	89.1336
687.99	89.0626
688.11	88.9049
688.23	89.0599
688.35	89.4614
688.48	89.3209
688.60	89.2397
688.72	89.4183
688.84	89.4753
688.96	89.5301
689.08	89.0384
689.20	89.1038
689.32	89.2703
689.44	89.3797
689.56	89.2134
689.68	89.6599
689.80	89.7013
689.92	89.5336
690.04	89.3043
690.16	89.2429
690.28	89.5131
690.41	89.4128
690.53	89.1140
690.65	88.9436
690.77	88.9754
690.89	88.7176
691.01	88.9228
691.13	89.1564
691.25	89.4484
691.37	89.7931
691.49	89.4630
691.61	89.3260
691.73	89.6166
691.85	89.6828
691.97	89.1754
692.09	89.4779
692.21	89.4173
692.33	89.4758
692.45	89.3546
692.57	89.3719
692.70	89.6054
692.82	89.8045
692.94	89.5418
693.06	89.6395
693.18	89.9948
693.30	89.5787
693.42	89.4704
693.54	89.5395
693.66	89.6625
693.78	89.4899
693.90	89.8215
694.02	90.0945
694.14	90.1122
694.26	89.7543
694.38	89.7255
694.50	89.7812
694.62	89.7183
694.74	89.6171
694.86	89.7428
694.98	89.6934
695.10	89.7599
695.22	89.6602
695.34	89.8014
695.46	89.8203
695.58	90.0670
695.71	90.0155
695.83	89.7703
695.95	89.9213
696.07	90.1333
696.19	90.2611
696.31	89.9765
696.43	90.2599
696.55	90.2917
696.67	90.2450
696.79	90.1761
696.91	90.0626
697.03	90.0741
697.15	90.1328
697.27	89.8378
697.39	89.8479
697.51	90.2325
697.63	89.9385
697.75	89.7335
697.87	90.0849
697.99	89.9458
698.11	89.8911
698.23	90.1885
698.35	90.1959
698.47	90.3235
698.59	90.1722
698.71	90.3507
698.83	90.4635
698.95	90.5463
699.07	90.3141
699.19	90.6752
699.31	90.5371
699.43	90.6418
699.55	90.7544
699.67	90.9363
699.79	90.9022
699.91	90.9465
700.03	90.7827
700.15	90.6067
700.27	90.7187
700.39	90.5838
700.51	90.5938
700.63	90.4883
700.75	90.7073
700.87	90.4611
700.99	90.7502
701.11	90.7581
701.24	90.6606
701.36	90.4841
701.48	90.6999
701.60	90.2796
701.72	90.3846
701.84	90.8524
701.96	90.8407
702.08	90.6166
702.20	90.9868
702.32	91.1189
702.44	91.1209
702.56	91.2643
702.68	91.0750
702.80	90.9281
702.92	90.8875
703.04	90.8263
703.16	91.0306
703.28	91.3942
703.40	91.4547
703.52	91.2931
703.64	91.1472
703.76	90.9420
703.88	90.9059
704.00	90.7307
704.12	90.8139
704.24	90.8028
704.36	90.9085
704.48	90.8173
704.60	91.0340
704.72	90.7526
704.84	90.7713
704.96	90.8368
705.07	90.9986
705.19	90.8367
705.31	91.2276
705.43	91.1599
705.55	90.9996
705.67	91.1550
705.79	91.4100
705.91	91.1798
706.03	91.2114
706.15	91.3337
706.27	91.0981
706.39	91.1428
706.51	91.3753
706.63	91.5184
706.75	91.3940
706.87	91.5670
706.99	91.7725
707.11	91.7648
707.23	91.7415
707.35	91.6624
707.47	91.4152
707.59	91.2153
707.71	91.1111
707.83	91.2293
707.95	91.0471
708.07	91.1434
708.19	91.4462
708.31	91.5068
708.43	91.3610
708.55	91.7261
708.67	91.7131
708.79	91.3668
708.91	91.2089
709.03	91.3712
709.15	91.2943
709.27	91.3668
709.39	91.3019
709.51	91.4372
709.63	91.6658
709.75	91.6809
709.87	91.7811
709.99	92.0334
710.11	92.3597
710.23	91.8394
710.35	91.8144
710.47	91.7819
710.58	91.5300
710.70	91.2469
710.82	91.4811
710.94	91.4950
711.06	91.5950
711.18	91.4578
711.30	91.3558
711.42	91.3648
711.54	91.7076
711.66	91.5432
711.78	91.5076
711.90	91.8560
712.02	92.2188
712.14	91.7644
712.26	91.5919
712.38	92.0053
712.50	91.9394
712.62	91.6700
712.74	91.4711
712.86	91.7857
712.98	91.7508
713.10	91.4297
713.22	91.2757
713.34	91.6129
713.45	91.5758
713.57	91.4229
713.69	91.5510
713.81	91.8061
713.93	92.2552
714.05	92.0481
714.17	91.9673
714.29	92.3015
714.41	92.2107
714.53	91.9184
714.65	92.3292
714.77	92.1623
714.89	91.9518
715.01	91.9478
715.13	91.9023
715.25	91.8444
715.37	92.0449
715.49	91.9808
715.61	91.7446
715.72	91.8231
715.84	91.7699
715.96	91.7013
716.08	91.6800
716.20	91.9642
716.32	91.9069
716.44	91.8031
716.56	91.6551
716.68	91.6482
716.80	91.7367
716.92	91.8186
717.04	91.9435
717.16	92.5142
717.28	92.5174
717.40	92.3931
717.52	92.3722
717.63	92.3102
717.75	92.1877
717.87	92.4277
717.99	92.2316
718.11	92.0554
718.23	91.9590
718.35	92.1270
718.47	91.9524
718.59	92.1849
718.71	92.1635
718.83	92.4631
718.95	92.1637
719.07	92.1644
719.19	92.0991
719.30	92.2369
719.42	92.0855
719.54	92.1812
719.66	92.4890
719.78	92.5699
719.90	92.6929
720.02	92.5542
720.14	92.5281
720.26	92.2671
720.38	92.4764
720.50	92.2248
720.62	92.6117
720.74	92.6207
720.85	92.3798
720.97	92.3414
721.09	92.3926
721.21	92.1304
721.33	92.2088
721.45	92.4351
721.57	92.6312
721.69	92.5050
721.81	92.2839
721.93	92.4270
722.05	92.7029
722.16	92.4080
722.28	92.4609
722.40	92.4555
722.52	92.6370
722.64	92.4638
722.76	92.3606
722.88	92.7579
723.00	92.9700
723.12	92.9713
723.24	92.6775
723.36	92.5932
723.47	92.4097
723.59	92.3493
723.71	92.2352
723.83	92.5421
723.95	92.5365
724.07	92.2172
724.19	92.5005
724.31	92.6590
724.43	92.7946
724.55	92.3631
724.66	92.8803
724.78	92.9124
724.90	92.5540
725.02	92.2910
725.14	93.1997
725.26	93.0266
725.38	92.7315
725.50	92.7053
725.62	93.0130
725.74	93.1858
725.85	93.4034
725.97	92.3283
726.09	92.7192
726.21	92.8864
726.33	92.6549
726.45	92.5110
726.57	93.7647
726.69	93.3714
726.81	93.0314
726.92	92.7657
727.04	92.7722
727.16	92.7929
727.28	92.9844
727.40	92.5691
727.52	92.4448
727.64	92.4276
727.76	92.6133
727.88	92.5999
727.99	92.9810
728.11	93.2268
728.23	93.3175
728.35	93.0804
728.47	92.9237
728.59	93.1289
728.71	93.1000
728.83	92.7856
728.94	92.5865
729.06	92.6582
729.18	92.4996
729.30	92.2832
729.42	92.3236
729.54	92.6332
729.66	92.5203
729.78	92.4425
729.90	92.9014
730.01	92.9973
730.13	93.0318
730.25	93.0457
730.37	93.1899
730.49	92.9570
730.61	92.9895
730.73	92.9698
730.84	93.0623
730.96	93.2613
731.08	93.4630
731.20	92.9682
731.32	93.0407
731.44	93.1615
731.56	92.7909
731.68	92.6475
731.79	93.3591
731.91	93.1634
732.03	93.2405
732.15	93.4787
732.27	93.3142
732.39	93.4257
732.51	93.7828
732.62	93.4526
732.74	93.5074
732.86	93.8735
732.98	93.6951
733.10	93.1882
733.22	93.7184
733.34	93.5685
733.45	93.4108
733.57	93.3114
733.69	93.5836
733.81	93.3864
733.93	93.3838
734.05	93.3416
734.17	93.4314
734.28	93.6850
734.40	93.6876
734.52	93.3843
734.64	93.4634
734.76	93.7278
734.88	93.4675
735.00	93.0358
735.11	93.5911
735.23	93.8848
735.35	93.4063
735.47	93.4459
735.59	93.8050
735.71	93.4025
735.83	92.9231
735.94	93.0250
736.06	92.8594
736.18	92.8098
736.30	93.2925
736.42	93.4949
736.54	93.0138
736.65	93.2533
736.77	93.4305
736.89	92.6389
737.01	92.9328
737.13	93.6304
737.25	93.4146
737.36	93.2165
737.48	93.8548
737.60	93.5077
737.72	93.1291
737.84	93.3786
737.96	93.3241
738.08	93.5099
738.19	93.4898
738.31	93.8613
738.43	93.7079
738.55	94.0604
738.67	93.9031
738.79	93.9099
738.90	94.1191
739.02	94.3931
739.14	94.0975
739.26	93.8741
739.38	94.1746
739.50	94.0152
739.61	93.8692
739.73	93.9092
739.85	93.8053
739.97	94.0091
740.09	93.9738
740.20	93.8374
740.32	94.2707
740.44	94.6308
740.56	94.3090
740.68	94.3231
740.80	94.2656
740.91	93.9062
741.03	93.9729
741.15	93.7494
741.27	93.6967
741.39	93.5959
741.51	93.6552
741.62	93.5910
741.74	93.8389
741.86	93.8971
741.98	94.1900
742.10	94.1791
742.21	94.2704
742.33	93.8485
742.45	93.8911
742.57	93.7912
742.69	93.9406
742.80	93.9024
742.92	94.4219
743.04	94.0845
743.16	94.4438
743.28	94.4300
743.40	94.5525
743.51	94.4582
743.63	94.8241
743.75	94.5696
743.87	94.4810
743.99	94.3150
744.10	94.4377
744.22	94.2379
744.34	94.0658
744.46	94.2498
744.58	93.9190
744.69	93.7259
744.81	94.1448
744.93	94.0535
745.05	93.6369
745.17	94.0496
745.28	94.1491
745.40	93.9855
745.52	94.2291
745.64	94.6625
745.76	94.8505
745.87	94.6298
745.99	94.7046
746.11	94.8014
746.23	94.8378
746.35	94.0614
746.46	94.1024
746.58	93.8752
746.70	93.8251
746.82	93.8252
746.94	94.5504
747.05	94.8634
747.17	95.2059
747.29	94.7783
747.41	94.9858
747.53	94.9436
747.64	94.6473
747.76	94.1878
747.88	94.7137
748.00	94.6094
748.12	94.6292
748.23	94.6910
748.35	94.8536
748.47	94.9931
748.59	94.9094
748.70	94.8087
748.82	94.9358
748.94	94.9476
749.06	94.9790
749.18	94.7465
749.29	94.8267
749.41	94.9789
749.53	94.9945
749.65	95.0833
749.76	95.3703
749.88	95.1198
750.00	94.7875
750.12	94.8491
750.24	94.7701
750.35	94.3243
750.47	94.5274
750.59	94.3976
750.71	94.7054
750.82	94.6426
750.94	94.9152
751.06	94.8688
751.18	95.1278
751.30	94.6966
751.41	94.6643
751.53	94.8178
751.65	94.6704
751.77	94.6295
751.88	95.1904
752.00	94.9276
752.12	94.8876
752.24	95.0884
752.35	95.0709
752.47	94.4893
752.59	95.0041
752.71	94.6610
752.83	94.9483
752.94	95.0399
753.06	95.2300
753.18	94.9923
753.30	95.2714
753.41	94.8880
753.53	94.8346
753.65	95.1107
753.77	95.1809
753.88	95.1397
754.00	95.0871
754.12	95.4339
754.24	95.8093
754.35	95.5960
754.47	95.6337
754.59	95.9758
754.71	95.9772
754.82	95.2574
754.94	95.4581
755.06	95.4572
755.18	95.4338
755.29	95.0806
755.41	95.3203
755.53	95.3370
755.65	95.3897
755.76	94.8987
755.88	94.9935
756.00	95.2800
756.12	95.2657
756.23	94.8373
756.35	95.2528
756.47	95.6341
756.59	95.2997
756.70	95.4227
756.82	95.6951
756.94	95.6234
757.06	95.4151
757.17	95.6864
757.29	95.3924
757.41	95.6084
757.53	95.6272
757.64	95.4213
757.76	95.1429
757.88	95.3072
758.00	95.5383
758.11	95.4760
758.23	95.6244
758.35	95.5423
758.47	95.5714
758.58	95.3184
758.70	95.6040
758.82	95.4113
758.94	95.7499
759.05	95.8532
759.17	95.5009
759.29	95.3295
759.40	95.5862
759.52	95.2355
759.64	94.8916
759.76	95.2489
759.87	95.3273
759.99	95.5642
760.11	95.7715
760.23	95.9609
760.34	96.0615
760.46	96.0836
760.58	95.6457
760.70	95.5735
760.81	95.5907
760.93	95.5646
761.05	95.7752
761.16	95.9901
761.28	96.2026
761.40	95.8329
761.52	95.6359
761.63	95.3954
761.75	95.4595
761.87	95.3034
761.98	95.7822
762.10	95.8378
762.22	96.1678
762.34	95.9619
762.45	95.3938
762.57	95.5235
762.69	95.4942
762.81	95.5177
762.92	95.5381
763.04	95.7490
763.16	95.6802
763.27	95.7905
763.39	95.3338
763.51	95.5238
763.63	96.2459
763.74	96.2235
763.86	96.3518
763.98	96.2586
764.09	96.3362
764.21	95.9458
764.33	95.8748
764.44	95.7105
764.56	95.9468
764.68	96.0099
764.80	95.6104
764.91	95.7065
765.03	95.8317
765.15	95.9860
765.26	95.4634
765.38	95.8314
765.50	95.6251
765.62	95.4149
765.73	95.3712
765.85	95.4909
765.97	95.6789
766.08	95.9023
766.20	95.9915
766.32	95.6883
766.43	95.9053
766.55	95.8472
766.67	95.8555
766.79	96.0875
766.90	96.4574
767.02	96.6721
767.14	95.9333
767.25	95.8623
767.37	95.8362
767.49	95.4039
767.60	95.0338
767.72	95.8508
767.84	96.0755
767.95	95.8923
768.07	96.1457
768.19	96.3463
768.31	96.2675
768.42	96.0398
768.54	95.7548
768.66	95.6284
768.77	95.7731
768.89	95.7243
769.01	95.5011
769.12	95.7999
769.24	96.0136
769.36	95.9298
769.47	95.6305
769.59	95.7356
769.71	95.7590
769.82	95.9049
769.94	95.5778
770.06	95.9830
770.17	95.9828
770.29	95.7709
770.41	95.8456
770.53	96.1770
770.64	96.0223
770.76	96.0646
770.88	96.7898
770.99	96.6559
771.11	96.6900
771.23	96.4763
771.34	96.2884
771.46	95.8603
771.58	95.7094
771.69	95.4435
771.81	96.0203
771.93	95.9370
772.04	95.9412
772.16	95.8563
772.28	96.0922
772.39	95.6510
772.51	96.2248
772.63	96.3672
772.74	95.8768
772.86	96.0714
772.98	96.3246
773.09	96.0415
773.21	95.8437
773.33	96.6808
773.44	96.2679
773.56	95.9676
773.68	96.2730
773.79	96.4532
773.91	96.4692
774.03	96.4221
774.14	96.8968
774.26	97.1424
774.38	96.9766
774.49	96.5999
774.61	96.8263
774.73	96.6085
774.84	96.0492
774.96	96.2303
775.08	96.3224
775.19	96.2091
775.31	96.2719
775.43	96.5842
775.54	96.0297
775.66	96.3796
775.77	96.2106
775.89	95.9032
776.01	95.6921
776.12	96.4904
776.24	96.4238
776.36	96.3700
776.47	96.3533
776.59	96.6143
776.71	96.4707
776.82	96.3034
776.94	96.4014
777.06	96.9312
777.17	97.0687
777.29	96.8005
777.41	96.8629
777.52	96.8181
777.64	96.9803
777.75	96.8324
777.87	96.6295
777.99	96.4560
778.10	96.7470
778.22	96.4466
778.34	96.1034
778.45	96.3522
778.57	96.5100
778.69	96.0287
778.80	96.0823
778.92	96.5134
779.04	96.5599
779.15	96.3414
779.27	96.5379
779.38	96.6198
779.50	96.3729
779.62	96.7646
779.73	96.3968
779.85	96.8205
779.97	96.9719
780.08	96.7280
780.20	96.1559
780.31	96.6706
780.43	96.6485
780.55	95.9808
780.66	95.5897
780.78	96.1024
780.90	96.4276
781.01	96.4494
781.13	96.4003
781.25	97.3144
781.36	97.1774
781.48	96.5152
781.59	96.2331
781.71	96.9587
781.83	97.1654
781.94	96.5849
782.06	97.0356
782.18	97.8517
782.29	97.2912
782.41	96.7385
782.52	97.2985
782.64	97.4989
782.76	97.5652
782.87	97.3580
782.99	96.7450
783.10	96.9154
783.22	96.6601
783.34	95.8142
783.45	96.2828
783.57	96.6808
783.69	95.9547
783.80	95.8252
783.92	96.1191
784.03	96.0206
784.15	96.3930
784.27	96.8330
784.38	96.8336
784.50	96.8358
784.61	97.0092
784.73	97.1227
784.85	96.7499
784.96	96.7249
785.08	96.6786
785.19	96.8899
785.31	96.8401
785.43	96.7855
785.54	96.7891
785.66	96.4251
785.77	96.5149
785.89	96.3917
786.01	96.7909
786.12	96.5915
786.24	96.8510
786.35	96.5928
786.47	96.8780
786.59	96.7394
786.70	97.1590
786.82	97.0979
786.93	96.9754
787.05	96.7475
787.17	97.0358
787.28	96.7258
787.40	96.6489
787.51	96.9581
787.63	96.6365
787.75	96.1976
787.86	96.5310
787.98	96.7768
788.09	96.2773
788.21	96.5089
788.33	97.2566
788.44	96.9784
788.56	97.2311
788.67	97.3601
788.79	97.6281
788.91	97.6080
789.02	97.3457
789.14	96.9090
789.25	97.1925
789.37	96.9356
789.48	96.7793
789.60	96.9276
789.72	96.6521
789.83	96.8555
789.95	97.2148
790.06	96.5622
790.18	96.6222
790.30	96.8745
790.41	96.4562
790.53	96.2330
790.64	96.4824
790.76	96.6395
790.87	96.4959
790.99	96.4627
791.11	96.4102
791.22	96.1915
791.34	96.1084
791.45	96.4381
791.57	96.6584
791.68	96.1242
791.80	96.3551
791.92	96.6741
792.03	96.6805
792.15	96.6261
792.26	96.9141
792.38	96.9580
792.49	97.0155
792.61	97.2568
792.73	97.8089
792.84	99.7364
792.96	94.9462
793.07	95.3859
793.19	96.2706
793.30	96.3842
793.42	95.2099
793.54	99.0925
793.65	98.6762
793.77	97.9213
793.88	97.0886
794.00	96.6017
794.11	97.1563
794.23	97.2291
794.34	97.3216
794.46	96.4633
794.58	95.9659
794.69	97.0265
794.81	97.2944
794.92	95.8926
795.04	96.4062
795.15	96.7270
795.27	96.4883
795.39	96.1623
795.50	97.2485
795.62	97.7530
795.73	97.7675
795.85	96.9210
795.96	96.9821
796.08	96.8924
796.19	97.0022
796.31	97.1877
796.42	97.3500
796.54	97.5019
796.66	97.9725
796.77	97.1538
796.89	97.5013
797.00	97.9416
797.12	97.2349
797.23	96.4852
797.35	96.8923
797.46	96.3506
797.58	96.4732
797.69	96.8173
797.81	97.2186
797.93	97.5058
798.04	97.2176
798.16	97.2193
798.27	97.2853
798.39	97.3208
798.50	97.4067
798.62	97.0691
798.73	96.9769
798.85	96.8569
798.96	96.2022
799.08	95.8898
799.19	96.7226
799.31	97.0936
799.43	97.0477
799.54	96.9528
799.66	97.2347
799.77	97.8303
799.89	97.4061
800.00	96.8820
800.12	96.8085
800.23	97.1497
800.35	96.8364
800.46	96.3892
800.58	96.8379
800.69	97.5180
800.81	96.6100
800.92	96.5536
801.04	97.2742
801.16	97.4722
801.27	97.3285
801.39	97.8419
801.50	97.2087
801.62	96.6982
801.73	97.2066
801.85	97.1112
801.96	96.6750
802.08	97.6304
802.19	97.9629
802.31	96.8155
802.42	96.7239
802.54	97.4913
802.65	96.6500
802.77	97.2787
802.88	97.2493
803.00	97.8523
803.11	97.7912
803.23	97.9448
803.34	97.5366
803.46	97.7459
803.57	97.7644
803.69	97.1246
803.80	97.4614
803.92	97.2988
804.03	97.5247
804.15	97.1453
804.26	98.0033
804.38	97.7329
804.50	97.4168
804.61	97.4562
804.73	98.1300
804.84	97.6679
804.96	97.7792
805.07	97.7219
805.19	97.4308
805.30	96.8216
805.42	96.6548
805.53	96.7670
805.65	97.2741
805.76	97.4829
805.88	97.2232
805.99	97.5001
806.11	97.2358
806.22	96.9453
806.34	97.1819
806.45	97.0209
806.57	97.2788
806.68	97.1976
806.80	96.9877
806.91	97.3368
807.03	97.9400
807.14	97.7227
807.26	97.4795
807.37	98.1391
807.49	97.3995
807.60	96.6140
807.72	96.6867
807.83	97.2864
807.95	96.7960
808.06	96.7249
808.17	97.4998
808.29	97.0828
808.40	96.5239
808.52	96.1718
808.63	96.7211
808.75	96.2556
808.86	96.5068
808.98	96.7290
809.09	97.3474
809.21	97.0644
809.32	98.0622
809.44	97.8392
809.55	98.3628
809.67	97.7792
809.78	97.2888
809.90	96.8087
810.01	96.1511
810.13	96.0868
810.24	96.7966
810.36	97.4561
810.47	96.8934
810.59	96.9964
810.70	97.0539
810.82	96.9235
810.93	97.0290
811.05	97.5566
811.16	97.9675
811.27	96.7880
811.39	97.1022
811.50	97.9730
811.62	97.4913
811.73	97.4526
811.85	98.0696
811.96	97.6131
812.08	96.8060
812.19	97.2247
812.31	98.0859
812.42	98.2767
812.54	97.9111
812.65	97.8123
812.77	97.6595
812.88	97.0745
813.00	97.7396
813.11	98.3437
813.22	98.7096
813.34	97.9600
813.45	97.2561
813.57	97.1977
813.68	97.8701
813.80	98.0663
813.91	97.6786
814.03	98.8827
814.14	98.2137
814.26	97.0809
814.37	96.9446
814.49	98.2010
814.60	97.3958
814.71	97.9842
814.83	98.2353
814.94	97.5250
815.06	98.0377
815.17	99.2880
815.29	97.4889
815.40	97.6642
815.52	98.5237
815.63	97.4881
815.75	97.3348
815.86	98.5068
815.97	97.7572
816.09	96.9047
816.20	98.8108
816.32	98.1830
816.43	98.9350
816.55	98.1350
816.66	99.0406
816.78	97.9603
816.89	98.6221
817.00	98.8057
817.12	99.2631
817.23	98.7240
817.35	99.6044
817.46	97.5442
817.58	97.3754
817.69	98.3118
817.81	98.1298
817.92	96.6897
818.03	98.7926
818.15	98.8024
818.26	98.5739
818.38	104.3980
818.49	112.3840
818.61	94.4093
818.72	97.7883
818.83	106.7895
818.95	102.7407
819.06	93.8573
819.18	112.9116
819.29	108.8819
819.41	99.5937
819.52	98.1354
819.64	100.3208
819.75	100.2625
819.86	98.8439
819.98	99.3324
820.09	100.3667
820.21	98.0865
820.32	96.2027
820.44	99.2367
820.55	99.0025
820.66	98.2040
820.78	98.8508
820.89	100.8552
821.01	99.1745
821.12	101.0566
821.23	98.3223
821.35	97.9395
821.46	99.3593
821.58	100.4826
821.69	96.9314
821.81	98.4604
821.92	97.6700
822.03	98.1273
822.15	98.2582
822.26	98.7436
822.38	99.1335
822.49	100.2980
822.61	97.4285
822.72	96.7853
822.83	100.3452
822.95	99.7217
823.06	98.0989
823.18	98.8214
823.29	100.1337
823.40	102.5657
823.52	98.8520
823.63	101.5967
823.75	106.3180
823.86	101.6813
823.97	99.6065
824.09	104.5789
824.20	105.4741
824.32	100.9865
824.43	99.7241
824.55	100.5170
824.66	102.4038
824.77	98.3241
824.89	99.7899
825.00	103.0370
825.12	102.0490
825.23	103.4740
825.34	102.0055
825.46	101.2333
825.57	107.5060
825.69	105.1049
825.80	104.4720
825.91	105.4818
826.03	108.0800
826.14	101.8516
826.26	102.3060
826.37	99.4490
826.48	108.5371
826.60	104.9475
826.71	105.4651
826.83	97.5254
826.94	94.2583
827.05	91.9017
827.17	93.6447
827.28	97.1372
827.39	102.4647
827.51	106.6171
827.62	106.1338
827.74	114.4318
827.85	116.0992
827.96	102.6493
828.08	116.3797
828.19	150.4468
828.31	131.9627
828.42	115.7030
828.53	127.2286
828.65	32.3179
828.76	0.0000
828.87	0.0000
828.99	0.0000
