Wavelength (nm)	Reflectance (%)
377.35	0.0000
377.48	0.0000
377.62	0.0000
377.75	7.3191
377.88	0.0000
378.02	42.6667
378.15	200.0000
378.28	200.0000
378.41	0.0000
378.55	200.0000
378.68	0.0000
378.81	200.0000
378.95	200.0000
379.08	200.0000
379.21	200.0000
379.35	54.8387
379.48	129.2093
379.61	139.8345
379.74	81.8340
379.88	0.0000
380.01	26.7010
380.14	55.3895
380.28	8.4864
380.41	1.8021
380.54	87.7836
380.68	85.1785
380.81	36.0330
380.94	19.2425
381.07	47.0064
381.21	52.2807
381.34	0.0000
381.47	13.6502
381.61	78.7993
381.74	59.8986
381.87	0.0000
382.00	50.7361
382.14	76.7837
382.27	12.7661
382.40	0.0000
382.54	48.8256
382.67	56.9595
382.80	21.8170
382.93	45.2772
383.07	54.8822
383.20	48.1008
383.33	70.8265
383.47	28.6460
383.60	24.4815
383.73	50.9383
383.86	46.9652
384.00	4.7285
384.13	44.3580
384.26	56.9372
384.40	28.8037
384.53	14.5257
384.66	32.0785
384.79	48.6885
384.93	38.5115
385.06	16.4885
385.19	19.9191
385.33	23.5409
385.46	2.3366
385.59	14.2014
385.72	50.2407
385.86	40.5329
385.99	39.0957
386.12	39.3541
386.25	11.2977
386.39	17.9947
386.52	34.4222
386.65	27.4652
386.79	6.7644
386.92	41.4299
387.05	49.9407
387.18	25.6556
387.32	18.0495
387.45	58.1642
387.58	48.0928
387.71	29.3708
387.85	33.6681
387.98	32.8130
388.11	31.8509
388.25	17.3978
388.38	8.0567
388.51	18.8991
388.64	41.7539
388.78	42.2834
388.91	16.9358
389.04	39.7186
389.17	35.3947
389.31	0.4255
389.44	0.0000
389.57	28.4293
389.70	25.2373
389.84	31.4852
389.97	34.6012
390.10	40.6249
390.24	43.6518
390.37	21.8140
390.50	17.6953
390.63	23.5837
390.77	16.1802
390.90	17.4030
391.03	34.6758
391.16	27.3528
391.30	30.3877
391.43	44.9860
391.56	22.9041
391.69	26.1473
391.83	43.7639
391.96	20.7889
392.09	10.2084
392.22	38.9182
392.36	39.5685
392.49	9.1571
392.62	12.0218
392.75	21.6493
392.89	15.7647
393.02	22.5592
393.15	11.8762
393.28	37.1467
393.42	29.2278
393.55	29.9640
393.68	17.7289
393.81	41.1813
393.95	39.0584
394.08	33.8606
394.21	24.0150
394.34	23.1751
394.48	25.5600
394.61	16.0692
394.74	21.2902
394.87	18.3742
395.01	34.9411
395.14	18.9569
395.27	5.0118
395.40	14.7001
395.54	22.3293
395.67	0.1779
395.80	14.8079
395.93	31.1011
396.07	30.6595
396.20	26.8412
396.33	30.9402
396.46	33.5636
396.59	40.1948
396.73	22.0796
396.86	20.2681
396.99	37.5965
397.12	52.9778
397.26	2.8500
397.39	8.1586
397.52	27.5585
397.65	20.9764
397.79	0.0000
397.92	37.4135
398.05	49.5705
398.18	26.5458
398.32	14.6443
398.45	20.3193
398.58	26.6955
398.71	19.0774
398.84	18.1836
398.98	19.3012
399.11	26.8443
399.24	21.4704
399.37	21.0445
399.51	25.9515
399.64	26.2927
399.77	22.7299
399.90	27.6531
400.03	18.3129
400.17	12.7436
400.30	15.1801
400.43	16.5442
400.56	10.3807
400.70	24.8861
400.83	30.3414
400.96	31.0193
401.09	23.8148
401.23	26.1049
401.36	21.2404
401.49	22.0701
401.62	26.3004
401.75	33.7260
401.89	26.0199
402.02	23.2535
402.15	22.5154
402.28	23.1277
402.41	26.0216
402.55	18.2517
402.68	16.3157
402.81	22.7462
402.94	24.3875
403.08	14.9405
403.21	20.4765
403.34	31.4259
403.47	22.4607
403.60	11.4474
403.74	19.1091
403.87	22.1144
404.00	19.8534
404.13	26.6809
404.26	25.6398
404.40	22.4325
404.53	29.0750
404.66	17.6370
404.79	13.0769
404.93	28.0982
405.06	26.8282
405.19	17.7018
405.32	21.8128
405.45	29.7827
405.59	31.5061
405.72	10.2479
405.85	21.1335
405.98	32.1871
406.11	25.7179
406.25	9.1372
406.38	29.6884
406.51	26.7574
406.64	21.9462
406.77	17.2616
406.91	24.2210
407.04	25.6608
407.17	24.2616
407.30	12.9937
407.43	11.5009
407.57	17.9172
407.70	19.3413
407.83	21.6393
407.96	17.4695
408.09	27.4256
408.23	28.5735
408.36	13.8002
408.49	9.4228
408.62	29.2092
408.75	24.4536
408.89	19.1408
409.02	24.1372
409.15	23.4961
409.28	26.1661
409.41	13.2818
409.55	11.9957
409.68	27.5192
409.81	24.0234
409.94	14.2598
410.07	30.5931
410.20	30.3829
410.34	21.1978
410.47	19.8605
410.60	24.6035
410.73	20.7267
410.86	23.9596
411.00	25.0907
411.13	29.4262
411.26	22.6914
411.39	24.0757
411.52	21.0937
411.66	23.5881
411.79	21.2623
411.92	26.0251
412.05	25.4333
412.18	19.9295
412.31	13.5787
412.45	23.7579
412.58	22.0753
412.71	14.8127
412.84	23.2458
412.97	30.4461
413.11	21.0390
413.24	10.1166
413.37	19.8943
413.50	21.8807
413.63	14.2495
413.76	13.5085
413.90	25.5293
414.03	22.6926
414.16	19.3420
414.29	12.4786
414.42	18.5982
414.56	17.1683
414.69	18.0168
414.82	15.0561
414.95	23.9626
415.08	17.1507
415.21	26.9291
415.35	21.3470
415.48	16.2055
415.61	27.3219
415.74	33.2018
415.87	10.2005
416.00	16.8145
416.14	29.0973
416.27	20.0457
416.40	14.3088
416.53	26.3564
416.66	28.3948
416.79	19.2317
416.93	18.1662
417.06	19.5821
417.19	21.2133
417.32	23.0940
417.45	18.9940
417.58	21.4902
417.72	22.8914
417.85	17.8612
417.98	14.7020
418.11	22.0606
418.24	19.3813
418.37	18.1674
418.51	14.5406
418.64	12.9076
418.77	18.2914
418.90	18.6760
419.03	14.4635
419.16	25.3397
419.29	32.6219
419.43	16.7354
419.56	15.4768
419.69	25.4840
419.82	23.7199
419.95	16.1053
420.08	18.6398
420.22	18.9334
420.35	16.0574
420.48	19.2655
420.61	15.8271
420.74	25.7958
420.87	30.6304
421.00	25.6899
421.14	16.5693
421.27	21.2598
421.40	20.3657
421.53	17.9291
421.66	21.0306
421.79	25.0000
421.93	28.2393
422.06	23.4297
422.19	19.6311
422.32	19.5801
422.45	23.3030
422.58	17.1245
422.71	15.2083
422.85	21.4449
422.98	23.5139
423.11	20.1371
423.24	23.0690
423.37	24.8160
423.50	21.9204
423.63	21.4639
423.77	19.4590
423.90	14.7553
424.03	16.0895
424.16	19.2238
424.29	18.2547
424.42	21.5324
424.55	22.5700
424.69	22.5630
424.82	22.9754
424.95	18.4521
425.08	18.2737
425.21	20.1889
425.34	18.6485
425.47	18.0968
425.60	22.0129
425.74	20.0522
425.87	18.9963
426.00	22.7922
426.13	21.1121
426.26	21.3966
426.39	17.1541
426.52	18.9895
426.66	23.8724
426.79	15.8375
426.92	11.4376
427.05	18.9472
427.18	19.7395
427.31	15.4983
427.44	20.2139
427.57	26.0776
427.71	24.4326
427.84	18.5889
427.97	15.5260
428.10	20.5659
428.23	26.8029
428.36	16.9351
428.49	14.8987
428.62	17.8008
428.76	20.5881
428.89	13.2487
429.02	14.8530
429.15	23.6421
429.28	23.4045
429.41	19.1085
429.54	15.0672
429.67	22.4928
429.81	22.3073
429.94	18.2986
430.07	12.2167
430.20	17.6982
430.33	18.6200
430.46	15.3985
430.59	20.0480
430.72	24.1096
430.85	23.2874
430.99	18.6169
431.12	15.9829
431.25	16.0194
431.38	19.2383
431.51	13.3121
431.64	13.2443
431.77	17.9417
431.90	19.5040
432.03	16.4033
432.17	19.5137
432.30	23.8710
432.43	22.5975
432.56	18.4937
432.69	15.7752
432.82	16.8996
432.95	16.0526
433.08	16.3406
433.21	16.6540
433.35	21.4205
433.48	20.2507
433.61	20.6440
433.74	18.0579
433.87	20.0562
434.00	19.0717
434.13	19.4969
434.26	17.9042
434.39	21.5584
434.53	21.0127
434.66	22.1409
434.79	18.4879
434.92	21.4695
435.05	20.7699
435.18	15.9381
435.31	13.7670
435.44	18.7843
435.57	20.4713
435.70	18.2645
435.84	15.6974
435.97	18.8523
436.10	20.4803
436.23	16.7860
436.36	17.9203
436.49	23.8885
436.62	19.3225
436.75	16.2396
436.88	17.1677
437.01	20.5521
437.14	21.2214
437.28	19.2123
437.41	17.6268
437.54	20.1068
437.67	22.5197
437.80	14.0880
437.93	15.5156
438.06	21.5219
438.19	21.1058
438.32	15.4505
438.45	19.4292
438.58	21.1182
438.72	19.7803
438.85	17.6142
438.98	15.9515
439.11	17.5873
439.24	18.2509
439.37	13.1222
439.50	13.7191
439.63	17.8365
439.76	20.5413
439.89	19.9197
440.02	18.9809
440.15	19.1160
440.29	20.9287
440.42	17.9163
440.55	13.5466
440.68	19.6147
440.81	20.8407
440.94	13.3033
441.07	14.5078
441.20	21.1267
441.33	18.8823
441.46	16.5745
441.59	20.8822
441.72	21.9845
441.85	20.3983
441.99	17.7369
442.12	17.6950
442.25	17.0809
442.38	19.3071
442.51	18.3202
442.64	19.2352
442.77	20.0818
442.90	21.0950
443.03	18.0702
443.16	16.1260
443.29	18.5616
443.42	17.2847
443.55	18.4621
443.68	18.8107
443.82	21.4592
443.95	19.1576
444.08	20.3401
444.21	18.3605
444.34	18.3029
444.47	17.9828
444.60	19.8309
444.73	16.4506
444.86	16.0800
444.99	16.8949
445.12	17.7018
445.25	15.3261
445.38	16.6549
445.51	18.9317
445.64	22.4978
445.78	16.5347
445.91	16.2186
446.04	20.9548
446.17	17.6088
446.30	12.2184
446.43	19.1813
446.56	22.4539
446.69	17.0640
446.82	16.7751
446.95	18.9546
447.08	19.1257
447.21	16.7148
447.34	17.8595
447.47	20.3755
447.60	17.8833
447.73	16.7865
447.86	18.2322
447.99	17.9378
448.13	18.4358
448.26	18.8315
448.39	17.1249
448.52	17.1931
448.65	18.5533
448.78	16.1638
448.91	18.7100
449.04	18.9621
449.17	18.2716
449.30	18.8102
449.43	17.5199
449.56	16.7853
449.69	20.7461
449.82	18.5677
449.95	16.4260
450.08	19.5540
450.21	19.9151
450.34	15.5188
450.47	17.8022
450.60	19.9514
450.73	20.4690
450.87	19.2492
451.00	15.5909
451.13	18.1332
451.26	17.5000
451.39	16.4444
451.52	17.0161
451.65	22.4198
451.78	22.0680
451.91	18.9563
452.04	16.5300
452.17	18.4319
452.30	18.7198
452.43	14.8938
452.56	19.3081
452.69	19.2986
452.82	18.0388
452.95	19.4895
453.08	19.4203
453.21	19.6899
453.34	21.7238
453.47	18.5433
453.60	16.7372
453.73	19.2072
453.86	17.4012
453.99	17.6595
454.12	19.0698
454.25	19.3984
454.38	18.1571
454.52	17.9807
454.65	18.6246
454.78	18.5253
454.91	17.9621
455.04	18.8057
455.17	16.0296
455.30	15.6311
455.43	18.7480
455.56	16.6681
455.69	15.2435
455.82	18.8552
455.95	18.6343
456.08	16.6639
456.21	19.3186
456.34	19.4408
456.47	19.0089
456.60	18.9812
456.73	17.5510
456.86	17.9438
456.99	19.7585
457.12	17.8072
457.25	16.9302
457.38	17.8875
457.51	17.0469
457.64	16.0303
457.77	17.8881
457.90	18.6018
458.03	18.0053
458.16	17.1646
458.29	17.9212
458.42	18.2260
458.55	19.0001
458.68	18.1269
458.81	15.4295
458.94	17.4117
459.07	19.1686
459.20	17.3044
459.33	16.8108
459.46	19.6914
459.59	19.1415
459.72	15.0862
459.85	15.6145
459.98	18.1563
460.11	20.1726
460.24	16.4031
460.37	17.6065
460.50	18.7795
460.63	18.7052
460.76	16.2401
460.89	17.3766
461.02	18.7460
461.15	18.7040
461.28	15.8858
461.41	17.8707
461.54	19.0822
461.67	17.1446
461.80	16.5683
461.93	18.1391
462.06	17.8710
462.19	18.2477
462.32	18.2473
462.45	18.4637
462.58	18.7740
462.71	18.9422
462.84	17.8775
462.97	18.4227
463.10	17.1156
463.23	17.3150
463.36	17.5312
463.49	16.6770
463.62	16.7799
463.75	18.0732
463.88	19.6822
464.01	15.9956
464.14	17.6591
464.27	18.9438
464.40	18.3727
464.53	16.9535
464.66	18.6962
464.79	18.8114
464.92	17.6132
465.05	17.6968
465.18	17.4860
465.31	18.7650
465.44	18.4849
465.57	15.9433
465.70	16.4583
465.83	18.2914
465.96	16.3348
466.09	15.3428
466.22	18.7295
466.35	18.8904
466.48	17.6054
466.61	18.0369
466.74	17.8645
466.87	17.0135
467.00	15.9335
467.13	16.7949
467.26	18.5575
467.39	19.3130
467.52	17.7299
467.65	18.6864
467.78	17.3536
467.91	16.1143
468.04	15.7808
468.17	18.0666
468.30	18.1591
468.43	17.5800
468.56	16.7118
468.69	17.9652
468.82	17.7073
468.95	17.8813
469.08	18.8795
469.21	18.4640
469.34	16.6773
469.47	17.2317
469.60	16.8251
469.73	15.7855
469.86	18.1428
469.99	19.4531
470.11	17.7180
470.24	17.4283
470.37	18.9625
470.50	18.7113
470.63	17.8582
470.76	16.9102
470.89	18.5182
471.02	18.9044
471.15	16.4354
471.28	16.3837
471.41	18.7797
471.54	18.8391
471.67	16.8249
471.80	18.0455
471.93	18.9703
472.06	19.5240
472.19	16.5689
472.32	17.0238
472.45	17.8046
472.58	17.4323
472.71	16.8525
472.84	18.8344
472.97	18.2504
473.10	19.1827
473.23	18.4016
473.36	17.5872
473.49	17.1834
473.62	17.6176
473.74	17.0209
473.87	18.3684
474.00	18.1725
474.13	17.3918
474.26	18.2835
474.39	17.9865
474.52	17.1550
474.65	18.8478
474.78	19.6857
474.91	17.7356
475.04	17.6863
475.17	18.3000
475.30	16.5806
475.43	16.6475
475.56	18.1846
475.69	18.8430
475.82	17.8497
475.95	18.7995
476.08	18.5309
476.21	18.4885
476.34	16.8065
476.46	17.8638
476.59	17.7768
476.72	18.6280
476.85	17.6744
476.98	18.1291
477.11	18.4810
477.24	18.1517
477.37	16.7123
477.50	17.8901
477.63	18.7352
477.76	18.0735
477.89	17.7071
478.02	18.5060
478.15	18.3024
478.28	18.2864
478.41	17.6804
478.54	18.2967
478.66	18.4471
478.79	18.5814
478.92	17.8409
479.05	18.4850
479.18	18.2325
479.31	18.2122
479.44	18.2535
479.57	18.3832
479.70	18.8627
479.83	19.3884
479.96	18.1068
480.09	17.5776
480.22	18.0204
480.35	17.7310
480.48	17.7869
480.60	18.5528
480.73	19.2980
480.86	19.4229
480.99	19.3037
481.12	18.2171
481.25	19.0726
481.38	19.0868
481.51	18.5283
481.64	18.5670
481.77	19.3433
481.90	19.1372
482.03	18.3686
482.16	18.7261
482.29	18.6386
482.41	19.1224
482.54	19.0001
482.67	19.2228
482.80	19.9422
482.93	19.4081
483.06	18.7551
483.19	19.1766
483.32	19.8650
483.45	18.9001
483.58	19.1963
483.71	19.2725
483.84	18.9058
483.97	18.7816
484.09	19.1465
484.22	19.7840
484.35	19.9958
484.48	19.9276
484.61	19.7779
484.74	20.0998
484.87	19.5448
485.00	19.9306
485.13	20.0432
485.26	20.4188
485.39	19.5958
485.52	19.6668
485.64	19.0320
485.77	19.6240
485.90	19.2599
486.03	20.1462
486.16	20.4452
486.29	20.6519
486.42	20.4244
486.55	20.3510
486.68	20.1185
486.81	20.4735
486.94	20.4295
487.06	20.1777
487.19	20.6429
487.32	20.8633
487.45	20.6316
487.58	21.3225
487.71	21.2292
487.84	20.6393
487.97	20.6811
488.10	21.1034
488.23	20.5527
488.35	21.0810
488.48	21.7088
488.61	21.9187
488.74	21.7119
488.87	21.3395
489.00	21.2261
489.13	21.4482
489.26	21.2296
489.39	21.1848
489.52	21.9678
489.64	21.9863
489.77	22.0330
489.90	22.1609
490.03	22.3333
490.16	22.3732
490.29	22.1685
490.42	22.2006
490.55	22.2282
490.68	22.7040
490.81	22.1446
490.93	22.4687
491.06	22.4006
491.19	22.0404
491.32	22.0502
491.45	22.6843
491.58	22.9519
491.71	23.4324
491.84	23.5310
491.97	23.2024
492.09	23.5375
492.22	23.2143
492.35	23.1096
492.48	23.8465
492.61	23.7692
492.74	23.5039
492.87	24.0715
493.00	23.8904
493.12	23.5842
493.25	24.0611
493.38	24.7001
493.51	24.5854
493.64	24.7424
493.77	25.1788
493.90	24.8549
494.03	24.3244
494.16	24.8557
494.28	25.5197
494.41	24.7945
494.54	24.8364
494.67	25.6550
494.80	25.3068
494.93	24.8739
495.06	25.7436
495.19	26.4108
495.31	26.3634
495.44	26.3461
495.57	26.7029
495.70	27.2648
495.83	27.4547
495.96	27.0024
496.09	26.9695
496.22	27.5991
496.34	27.4406
496.47	27.0657
496.60	27.2618
496.73	28.0780
496.86	27.5108
496.99	27.8604
497.12	28.1501
497.24	28.4146
497.37	28.5152
497.50	29.0102
497.63	28.2570
497.76	28.1755
497.89	29.2253
498.02	29.2672
498.15	28.9092
498.27	29.2531
498.40	29.6931
498.53	28.9666
498.66	29.3847
498.79	29.6789
498.92	30.1632
499.05	30.4419
499.17	30.1680
499.30	29.8442
499.43	30.6183
499.56	30.5627
499.69	30.6620
499.82	31.6580
499.95	32.1309
500.07	31.9361
500.20	31.5712
500.33	32.0348
500.46	32.3334
500.59	32.2816
500.72	32.1648
500.85	32.8548
500.97	33.1760
501.10	33.0586
501.23	32.7959
501.36	33.1285
501.49	33.5961
501.62	32.9207
501.75	33.4043
501.87	33.8289
502.00	33.7471
502.13	33.8914
502.26	34.3877
502.39	34.4168
502.52	34.7544
502.64	34.7355
502.77	34.7022
502.90	35.1264
503.03	35.1745
503.16	34.9035
503.29	35.4117
503.42	35.8125
503.54	35.8671
503.67	35.5195
503.80	36.5504
503.93	36.9928
504.06	36.7065
504.19	36.8605
504.31	37.2960
504.44	36.9018
504.57	37.2170
504.70	37.5930
504.83	37.8383
504.96	38.2464
505.08	38.0029
505.21	37.7620
505.34	38.1587
505.47	38.1938
505.60	38.3127
505.73	38.3051
505.85	38.8067
505.98	39.2569
506.11	39.6109
506.24	39.6943
506.37	40.2533
506.50	40.3470
506.62	40.2789
506.75	39.9856
506.88	40.3435
507.01	40.7536
507.14	40.8321
507.27	40.9627
507.39	41.4659
507.52	41.2050
507.65	41.7811
507.78	41.6883
507.91	41.5432
508.04	41.6009
508.16	42.0234
508.29	42.1155
508.42	42.6147
508.55	42.4045
508.68	42.7280
508.81	43.0507
508.93	42.8243
509.06	42.7550
509.19	43.5075
509.32	43.4460
509.45	43.5981
509.57	43.7976
509.70	44.1783
509.83	44.2685
509.96	44.5255
510.09	44.6282
510.22	45.0414
510.34	44.5728
510.47	44.8207
510.60	44.9240
510.73	44.9988
510.86	45.1231
510.98	45.5161
511.11	45.4438
511.24	45.7737
511.37	45.8781
511.50	45.8393
511.63	46.2017
511.75	46.3331
511.88	46.2749
512.01	46.2196
512.14	46.3337
512.27	46.3345
512.39	46.4450
512.52	46.6701
512.65	46.8799
512.78	46.7940
512.91	46.7031
513.03	46.7216
513.16	46.8002
513.29	46.9499
513.42	46.9402
513.55	47.5343
513.67	47.9410
513.80	47.8853
513.93	47.7852
514.06	48.1763
514.19	47.8989
514.31	48.1157
514.44	48.2686
514.57	48.1865
514.70	48.5403
514.83	48.8897
514.95	48.6357
515.08	48.7025
515.21	49.0921
515.34	49.1134
515.47	49.0460
515.59	49.2474
515.72	49.1177
515.85	49.4287
515.98	49.3716
516.11	49.3636
516.23	49.6650
516.36	50.2903
516.49	50.0376
516.62	49.8311
516.75	50.4582
516.87	50.3242
517.00	49.7389
517.13	49.9073
517.26	50.7194
517.39	50.3149
517.51	49.9126
517.64	50.5221
517.77	50.5251
517.90	50.1574
518.02	50.6111
518.15	50.9931
518.28	50.7343
518.41	50.7911
518.54	50.8764
518.66	50.7659
518.79	51.0076
518.92	51.1015
519.05	50.9414
519.18	51.0375
519.30	51.0369
519.43	51.0849
519.56	50.9014
519.69	51.3446
519.81	51.5248
519.94	51.4936
520.07	51.3942
520.20	51.5661
520.33	51.6408
520.45	51.5159
520.58	51.4414
520.71	51.6389
520.84	52.0768
520.96	52.2329
521.09	52.0496
521.22	52.1067
521.35	52.3973
521.48	52.4860
521.60	52.2509
521.73	52.0984
521.86	52.4199
521.99	52.3920
522.11	52.1119
522.24	52.2812
522.37	52.3051
522.50	52.5314
522.62	52.3673
522.75	52.6043
522.88	52.5330
523.01	52.8128
523.14	52.2434
523.26	52.6223
523.39	52.2917
523.52	52.3998
523.65	52.6969
523.77	53.0587
523.90	52.7675
524.03	53.1085
524.16	53.1796
524.28	53.0276
524.41	53.2410
524.54	53.3448
524.67	53.1489
524.79	52.8653
524.92	53.2352
525.05	53.0215
525.18	53.2986
525.31	52.9208
525.43	53.4990
525.56	53.8112
525.69	53.6966
525.82	53.3148
525.94	54.1031
526.07	54.0618
526.20	53.3143
526.33	53.4278
526.45	53.7371
526.58	53.7567
526.71	53.5123
526.84	53.9576
526.96	54.0108
527.09	53.9807
527.22	54.1866
527.35	53.9818
527.47	54.0904
527.60	54.1058
527.73	53.9589
527.86	53.6730
527.98	54.1561
528.11	53.7827
528.24	54.0745
528.37	54.1015
528.49	53.8149
528.62	54.0382
528.75	54.2944
528.88	54.0844
529.00	54.4386
529.13	54.9818
529.26	54.3775
529.39	54.1379
529.51	54.5729
529.64	54.4776
529.77	54.1880
529.90	54.5139
530.02	54.9539
530.15	54.6653
530.28	54.5161
530.40	54.5080
530.53	54.6614
530.66	54.3027
530.79	54.3324
530.91	54.3481
531.04	54.4985
531.17	54.3822
531.30	54.5568
531.42	54.1247
531.55	54.4008
531.68	54.5351
531.81	54.5256
531.93	54.7724
532.06	55.1852
532.19	54.9386
532.31	54.7255
532.44	54.9850
532.57	54.8233
532.70	54.6877
532.82	54.5150
532.95	54.5126
533.08	54.4707
533.21	54.6198
533.33	54.8932
533.46	54.7368
533.59	55.0474
533.71	55.1915
533.84	55.2002
533.97	55.1915
534.10	55.6213
534.22	55.5154
534.35	55.1127
534.48	55.1553
534.61	55.2904
534.73	55.1943
534.86	54.9808
534.99	55.2125
535.11	55.1671
535.24	55.2013
535.37	55.5492
535.50	55.5875
535.62	55.5166
535.75	55.5831
535.88	55.4451
536.00	55.2185
536.13	55.4803
536.26	55.7530
536.39	55.4573
536.51	55.5401
536.64	55.7395
536.77	55.6939
536.89	55.4923
537.02	55.7461
537.15	55.6536
537.28	55.7339
537.40	55.6101
537.53	55.6414
537.66	55.8069
537.78	56.0369
537.91	55.9165
538.04	56.3713
538.17	56.2059
538.29	55.7758
538.42	55.5987
538.55	55.8150
538.67	55.5660
538.80	56.0288
538.93	56.1421
539.05	56.1320
539.18	55.9632
539.31	56.3527
539.44	56.1696
539.56	56.4291
539.69	56.7827
539.82	56.9595
539.94	56.3054
540.07	56.3649
540.20	56.3766
540.32	56.1247
540.45	55.7268
540.58	56.3642
540.71	56.5949
540.83	56.7124
540.96	56.5388
541.09	56.6565
541.21	56.7853
541.34	56.8302
541.47	56.6656
541.59	56.5595
541.72	56.8460
541.85	56.9544
541.98	56.9067
542.10	56.5872
542.23	57.0413
542.36	57.1031
542.48	56.8930
542.61	56.7341
542.74	57.2046
542.86	57.2950
542.99	57.1524
543.12	57.1968
543.24	57.1793
543.37	57.1877
543.50	57.0665
543.62	57.2673
543.75	57.1895
543.88	57.1784
544.01	57.0758
544.13	57.2291
544.26	57.2300
544.39	57.2319
544.51	57.2708
544.64	57.5383
544.77	57.4304
544.89	57.5685
545.02	57.3414
545.15	57.2237
545.27	57.1593
545.40	57.1399
545.53	57.2461
545.65	57.7079
545.78	58.0103
545.91	57.9373
546.03	58.2144
546.16	58.1576
546.29	58.0327
546.41	58.2633
546.54	58.2771
546.67	57.9671
546.79	58.1813
546.92	58.1806
547.05	58.1264
547.17	58.2300
547.30	58.6310
547.43	58.3145
547.56	58.4820
547.68	58.3342
547.81	58.4103
547.94	58.4475
548.06	58.3337
548.19	58.3574
548.32	58.6546
548.44	58.6542
548.57	58.3708
548.70	58.5982
548.82	58.6782
548.95	58.7193
549.08	58.4645
549.20	58.7270
549.33	58.9259
549.45	59.1081
549.58	58.8610
549.71	59.5166
549.83	59.5349
549.96	59.4657
550.09	59.2040
550.21	59.4933
550.34	59.3181
550.47	59.6979
550.59	59.6888
550.72	59.4150
550.85	59.4915
550.97	59.6572
551.10	59.1697
551.23	59.2279
551.35	59.8291
551.48	59.9870
551.61	59.7502
551.73	59.9313
551.86	60.1693
551.99	59.8901
552.11	59.6319
552.24	59.9645
552.37	60.1568
552.49	60.0088
552.62	60.2656
552.75	60.5444
552.87	60.4513
553.00	60.5242
553.12	60.5569
553.25	60.3609
553.38	60.2734
553.50	60.5855
553.63	60.5020
553.76	60.6606
553.88	61.0247
554.01	61.0466
554.14	60.6728
554.26	60.9361
554.39	60.9996
554.52	61.0568
554.64	61.1196
554.77	61.3349
554.89	61.2803
555.02	61.3908
555.15	61.4160
555.27	61.3076
555.40	61.5339
555.53	61.8462
555.65	61.7467
555.78	61.5801
555.91	62.1224
556.03	62.3089
556.16	62.0168
556.29	62.0021
556.41	62.4514
556.54	62.4524
556.66	61.9930
556.79	62.1512
556.92	62.6412
557.04	62.5081
557.17	62.3996
557.30	62.8082
557.42	62.7874
557.55	62.6651
557.67	62.6647
557.80	62.6492
557.93	62.8931
558.05	63.0503
558.18	62.9562
558.31	62.9781
558.43	63.1596
558.56	63.2189
558.68	63.3199
558.81	63.1862
558.94	63.5177
559.06	63.6298
559.19	63.6387
559.32	63.6436
559.44	64.0441
559.57	64.0029
559.69	63.9036
559.82	63.8901
559.95	64.2921
560.07	64.3768
560.20	64.3042
560.33	64.6464
560.45	64.4427
560.58	64.3434
560.70	64.4243
560.83	64.5439
560.96	64.2770
561.08	64.7802
561.21	65.0762
561.33	64.9496
561.46	65.2270
561.59	65.5993
561.71	65.7006
561.84	65.4807
561.97	66.0013
562.09	66.1513
562.22	66.0573
562.34	66.0245
562.47	66.2678
562.60	66.2221
562.72	66.1413
562.85	66.4182
562.97	66.6024
563.10	66.6948
563.23	66.6723
563.35	66.7624
563.48	66.6648
563.60	66.8513
563.73	66.9571
563.86	67.0963
563.98	67.3409
564.11	67.3684
564.23	67.3605
564.36	67.2723
564.49	67.4979
564.61	67.6244
564.74	67.7704
564.86	67.7843
564.99	67.8589
565.12	67.8868
565.24	67.8372
565.37	67.9349
565.49	68.0431
565.62	68.4896
565.75	68.0743
565.87	68.1051
566.00	68.5400
566.12	68.4472
566.25	68.3527
566.38	68.7494
566.50	68.8507
566.63	68.7830
566.75	69.0963
566.88	69.1115
567.01	69.3700
567.13	69.6678
567.26	69.5427
567.38	69.6777
567.51	69.6731
567.64	69.5911
567.76	69.5362
567.89	69.7962
568.01	69.6083
568.14	69.7054
568.26	69.9044
568.39	69.8819
568.52	69.9490
568.64	70.2270
568.77	70.3737
568.89	70.5737
569.02	70.7962
569.15	70.7723
569.27	70.6551
569.40	70.7658
569.52	70.8242
569.65	71.0222
569.77	71.3648
569.90	71.3636
570.03	71.5560
570.15	71.6603
570.28	71.8327
570.40	71.7403
570.53	72.0175
570.66	72.0719
570.78	72.2371
570.91	72.0678
571.03	72.2123
571.16	72.4691
571.28	72.5239
571.41	72.6256
571.54	72.7116
571.66	72.7504
571.79	72.7839
571.91	72.7256
572.04	72.4560
572.16	72.6197
572.29	72.7402
572.42	72.9173
572.54	73.0496
572.67	73.4606
572.79	73.6077
572.92	73.7148
573.04	73.8573
573.17	74.2008
573.29	73.9406
573.42	73.8255
573.55	73.8970
573.67	73.9450
573.80	73.9576
573.92	74.1110
574.05	74.2309
574.17	74.3055
574.30	74.3510
574.43	74.2067
574.55	74.4655
574.68	74.6212
574.80	74.8065
574.93	74.8622
575.05	75.0709
575.18	74.9932
575.30	74.8821
575.43	74.9197
575.56	74.9398
575.68	75.0688
575.81	75.0869
575.93	75.2410
576.06	75.3574
576.18	75.5084
576.31	75.1840
576.43	75.3264
576.56	75.5189
576.69	75.6396
576.81	75.6615
576.94	75.9996
577.06	76.2070
577.19	76.2061
577.31	75.9350
577.44	76.0090
577.56	75.9923
577.69	76.1285
577.82	76.4983
577.94	76.5669
578.07	76.3913
578.19	76.7692
578.32	76.8354
578.44	76.6074
578.57	76.9423
578.69	77.1113
578.82	76.8988
578.94	76.8542
579.07	76.9087
579.19	76.8446
579.32	77.0676
579.45	77.3396
579.57	77.3392
579.70	77.5242
579.82	77.4391
579.95	77.4948
580.07	77.3767
580.20	77.4471
580.32	77.4090
580.45	77.6065
580.57	77.5065
580.70	77.4769
580.82	77.8876
580.95	77.7563
581.08	77.8841
581.20	77.9296
581.33	78.0670
581.45	77.6075
581.58	78.0921
581.70	78.0092
581.83	78.0316
581.95	78.2080
582.08	78.5200
582.20	78.4205
582.33	78.6105
582.45	78.6160
582.58	78.5810
582.70	78.5739
582.83	78.4562
582.95	78.4084
583.08	78.4708
583.21	78.6119
583.33	78.9373
583.46	79.0206
583.58	78.9833
583.71	79.1647
583.83	79.1436
583.96	78.8680
584.08	78.8410
584.21	79.0352
584.33	79.1861
584.46	78.9997
584.58	78.9056
584.71	79.1590
584.83	79.3517
584.96	79.1433
585.08	79.2262
585.21	79.4713
585.33	79.3766
585.46	79.4003
585.58	79.6131
585.71	79.6380
585.83	79.7560
585.96	79.7149
586.08	79.4943
586.21	79.6382
586.33	79.7027
586.46	79.6260
586.59	79.5712
586.71	79.5087
586.84	79.4527
586.96	79.5759
587.09	79.2546
587.21	79.4127
587.34	79.7000
587.46	79.4987
587.59	79.5385
587.71	80.0833
587.84	80.2688
587.96	80.0861
588.09	80.2366
588.21	80.2500
588.34	80.1662
588.46	80.1448
588.59	80.3753
588.71	80.4487
588.84	80.1561
588.96	80.1027
589.09	80.2204
589.21	80.2460
589.34	80.1233
589.46	80.3585
589.59	80.6124
589.71	80.6334
589.84	80.5504
589.96	80.6433
590.09	80.7511
590.21	80.5733
590.34	80.6412
590.46	80.6808
590.59	80.5127
590.71	80.7280
590.84	80.5998
590.96	80.4465
591.09	80.5930
591.21	81.0372
591.34	80.6832
591.46	80.7592
591.59	80.6738
591.71	80.7686
591.83	80.5967
591.96	80.8607
592.08	81.0019
592.21	81.2067
592.33	81.1779
592.46	81.0872
592.58	80.9169
592.71	80.8603
592.83	80.5736
592.96	80.5506
593.08	80.8087
593.21	81.0296
593.33	81.1580
593.46	81.2792
593.58	81.1891
593.71	81.2957
593.83	81.0303
593.96	80.9418
594.08	81.1444
594.21	81.1579
594.33	81.1018
594.46	81.5155
594.58	81.5907
594.71	81.5436
594.83	81.1487
594.96	81.0230
595.08	81.0405
595.20	81.2033
595.33	80.8220
595.45	81.2339
595.58	81.4380
595.70	81.3476
595.83	81.1179
595.95	81.5660
596.08	81.7451
596.20	81.5790
596.33	81.6307
596.45	81.8273
596.58	81.6381
596.70	81.4950
596.83	81.4044
596.95	81.5033
597.08	81.3838
597.20	81.4466
597.32	81.4295
597.45	81.4979
597.57	81.4112
597.70	81.3848
597.82	81.5037
597.95	81.5234
598.07	81.5609
598.20	81.6526
598.32	81.6295
598.45	81.5037
598.57	81.6496
598.70	81.7571
598.82	81.4552
598.94	81.4415
599.07	81.5699
599.19	81.8155
599.32	81.5761
599.44	81.7632
599.57	81.9455
599.69	82.1401
599.82	81.6208
599.94	81.7677
600.07	82.0044
600.19	82.0815
600.31	81.6263
600.44	81.7273
600.56	81.8735
600.69	81.7342
600.81	81.6817
600.94	81.9071
601.06	81.9034
601.19	82.0429
601.31	81.8334
601.44	81.7558
601.56	81.8119
601.68	81.9921
601.81	81.6307
601.93	81.9860
602.06	82.2147
602.18	82.0525
602.31	81.8898
602.43	82.0370
602.56	81.8683
602.68	81.5849
602.80	81.9132
602.93	82.0143
603.05	82.0432
603.18	82.1963
603.30	82.3924
603.43	82.2019
603.55	82.2219
603.68	82.1943
603.80	82.0401
603.92	81.9617
604.05	82.1677
604.17	82.1381
604.30	82.0611
604.42	81.9071
604.55	81.9458
604.67	81.8623
604.79	81.9123
604.92	82.1224
605.04	82.3908
605.17	82.4649
605.29	82.3001
605.42	82.4321
605.54	82.3565
605.66	82.3052
605.79	82.2019
605.91	82.4329
606.04	82.2426
606.16	82.2660
606.29	82.4005
606.41	82.5557
606.53	82.4582
606.66	82.6817
606.78	82.7387
606.91	82.5992
607.03	82.5931
607.16	82.5072
607.28	82.2637
607.40	82.2380
607.53	82.3253
607.65	82.3203
607.78	82.2108
607.90	82.4871
608.03	82.4979
608.15	82.6362
608.27	82.6918
608.40	83.0367
608.52	82.7874
608.65	83.0014
608.77	82.7494
608.89	82.4367
609.02	82.4999
609.14	82.5873
609.27	82.5053
609.39	82.9816
609.52	83.3291
609.64	83.3529
609.76	83.3651
609.89	83.1501
610.01	82.9234
610.14	82.9401
610.26	82.6607
610.38	82.8470
610.51	83.0476
610.63	82.8653
610.76	82.7136
610.88	82.5968
611.01	82.4427
611.13	82.4977
611.25	82.6198
611.38	82.7614
611.50	83.0237
611.63	83.1966
611.75	83.1191
611.87	82.9187
612.00	82.8740
612.12	83.1795
612.25	83.1681
612.37	83.2496
612.49	83.2903
612.62	83.3854
612.74	83.1880
612.87	83.3147
612.99	83.1880
613.11	83.2149
613.24	83.1854
613.36	83.2385
613.49	83.1794
613.61	83.1633
613.73	83.4589
613.86	83.5190
613.98	83.4213
614.11	83.2545
614.23	83.2680
614.35	83.1779
614.48	83.1309
614.60	83.1294
614.72	83.3069
614.85	83.4742
614.97	83.5680
615.10	83.5306
615.22	83.5475
615.34	83.6428
615.47	83.6181
615.59	83.5272
615.72	83.8011
615.84	83.5720
615.96	83.5202
616.09	83.6977
616.21	83.6507
616.34	83.4305
616.46	83.7950
616.58	83.7606
616.71	83.6006
616.83	83.6376
616.95	83.7673
617.08	83.9194
617.20	84.1069
617.33	84.0070
617.45	84.1138
617.57	84.1288
617.70	83.9017
617.82	83.6435
617.95	83.8177
618.07	83.7447
618.19	83.5980
618.32	83.8060
618.44	84.0908
618.56	84.2939
618.69	84.2000
618.81	84.3980
618.94	84.3160
619.06	84.1887
619.18	84.1269
619.31	84.1807
619.43	83.9793
619.55	84.2834
619.68	84.4618
619.80	84.0831
619.92	84.0838
620.05	84.4200
620.17	84.4179
620.30	84.2472
620.42	84.5811
620.54	84.8213
620.67	84.7293
620.79	84.3137
620.91	84.3628
621.04	84.4332
621.16	84.6580
621.29	84.7064
621.41	85.0128
621.53	85.3073
621.66	85.1738
621.78	84.7024
621.90	84.8613
622.03	84.9460
622.15	84.8309
622.27	85.1208
622.40	85.3555
622.52	85.4492
622.64	85.4094
622.77	85.1435
622.89	85.0639
623.02	85.1447
623.14	84.9443
623.26	84.8017
623.39	85.1478
623.51	85.3645
623.63	85.2274
623.76	85.2044
623.88	85.4211
624.00	85.3386
624.13	85.1951
624.25	85.2661
624.37	85.1696
624.50	85.4131
624.62	85.6947
624.75	85.5698
624.87	85.8662
624.99	86.1677
625.12	85.5880
625.24	85.3811
625.36	85.5776
625.49	85.3762
625.61	85.1065
625.73	85.6146
625.86	85.6837
625.98	85.7268
626.10	85.6680
626.23	85.8091
626.35	85.7445
626.47	85.6924
626.60	85.6253
626.72	85.6529
626.84	85.8181
626.97	85.9465
627.09	85.7523
627.21	85.6682
627.34	86.0861
627.46	86.1522
627.58	85.8904
627.71	86.5444
627.83	86.5724
627.95	86.0135
628.08	85.9561
628.20	86.2815
628.32	86.0059
628.45	86.0935
628.57	86.3904
628.69	86.2534
628.82	86.2936
628.94	86.3197
629.06	86.3222
629.19	86.6103
629.31	86.7559
629.43	86.6240
629.56	86.4279
629.68	86.6513
629.80	86.5889
629.93	86.6438
630.05	86.6461
630.17	87.0091
630.30	86.8405
630.42	86.9096
630.54	87.1079
630.67	86.8975
630.79	86.8522
630.91	86.9689
631.04	86.9220
631.16	86.8712
631.28	87.2827
631.41	87.0898
631.53	86.9551
631.65	86.7711
631.78	86.6195
631.90	86.7449
632.02	86.6781
632.14	86.8503
632.27	87.1121
632.39	86.9561
632.51	86.8499
632.64	87.2042
632.76	87.2990
632.88	87.3882
633.01	87.6795
633.13	87.2623
633.25	87.3855
633.38	87.4655
633.50	87.4379
633.62	87.6008
633.75	87.9145
633.87	87.7741
633.99	87.8551
634.11	87.6838
634.24	87.6207
634.36	87.7202
634.48	87.5148
634.61	87.5431
634.73	87.7758
634.85	87.8611
634.98	87.9767
635.10	87.8822
635.22	87.7494
635.35	87.9593
635.47	87.8830
635.59	87.7333
635.71	87.9671
635.84	87.8433
635.96	87.7107
636.08	87.6321
636.21	87.6003
636.33	87.8584
636.45	88.2225
636.58	87.9200
636.70	88.1288
636.82	88.5659
636.94	88.3886
637.07	88.1362
637.19	88.3739
637.31	88.5185
637.44	88.2563
637.56	88.3076
637.68	88.3899
637.81	88.7707
637.93	88.4679
638.05	88.0732
638.17	88.1769
638.30	88.2918
638.42	87.9408
638.54	88.0996
638.67	88.5268
638.79	88.6864
638.91	88.7365
639.03	88.8952
639.16	88.9840
639.28	89.1327
639.40	88.7949
639.53	88.8262
639.65	88.9209
639.77	88.8015
639.89	88.6789
640.02	89.0347
640.14	88.7473
640.26	88.7061
640.39	88.8580
640.51	88.7448
640.63	88.5490
640.75	88.8271
640.88	88.7524
641.00	88.2980
641.12	88.6508
641.24	89.0183
641.37	88.6628
641.49	88.8412
641.61	89.2843
641.74	89.3102
641.86	88.9306
641.98	89.2536
642.10	89.2170
642.23	89.2257
642.35	88.9554
642.47	88.9382
642.60	89.0539
642.72	88.9691
642.84	88.8773
642.96	88.9377
643.09	89.1653
643.21	89.1735
643.33	89.1408
643.45	89.0490
643.58	89.2323
643.70	89.1639
643.82	89.1247
643.94	89.2154
644.07	89.3853
644.19	89.2237
644.31	89.3431
644.44	89.3606
644.56	89.3806
644.68	89.4556
644.80	89.6044
644.93	89.4651
645.05	89.5003
645.17	89.5488
645.29	89.5809
645.42	89.3717
645.54	89.3962
645.66	89.4480
645.78	89.3199
645.91	89.0627
646.03	89.3085
646.15	89.4002
646.27	89.3288
646.40	89.2513
646.52	89.6053
646.64	89.7759
646.76	89.6580
646.89	89.6204
647.01	89.6295
647.13	89.7812
647.25	89.5952
647.38	89.5281
647.50	89.8209
647.62	90.2045
647.74	89.8626
647.87	89.6385
647.99	89.8331
648.11	89.8367
648.23	89.5201
648.36	89.6890
648.48	90.0534
648.60	90.3462
648.72	89.9045
648.85	90.1022
648.97	90.2282
649.09	90.2230
649.21	89.9905
649.34	90.2624
649.46	90.2719
649.58	90.2999
649.70	90.0099
649.83	89.9304
649.95	89.8635
650.07	89.7645
650.19	89.4959
650.32	89.5547
650.44	89.6177
650.56	89.6476
650.68	89.7154
650.81	89.6621
650.93	89.8157
651.05	89.7518
651.17	89.8718
651.29	89.9282
651.42	90.3041
651.54	90.5423
651.66	90.5628
651.78	90.0994
651.91	90.0944
652.03	90.0906
652.15	89.8782
652.27	90.1047
652.40	90.6193
652.52	90.8465
652.64	90.3614
652.76	90.3894
652.88	90.3666
653.01	90.5558
653.13	90.2505
653.25	90.5106
653.37	90.5564
653.50	90.6944
653.62	90.2429
653.74	90.2342
653.86	90.5271
653.98	90.5784
654.11	90.4944
654.23	90.4748
654.35	90.5963
654.47	90.5716
654.60	90.7536
654.72	90.3716
654.84	90.5857
654.96	90.6149
655.08	90.5107
655.21	90.1976
655.33	90.5173
655.45	90.6761
655.57	90.5911
655.70	90.3792
655.82	90.4297
655.94	90.6958
656.06	90.4562
656.18	90.4069
656.31	90.7151
656.43	90.8431
656.55	90.6135
656.67	90.6332
656.79	90.9242
656.92	90.9915
657.04	90.6677
657.16	90.7193
657.28	90.7522
657.40	90.7991
657.53	90.6105
657.65	90.5915
657.77	90.6479
657.89	90.8847
658.01	90.6062
658.14	90.6943
658.26	91.1752
658.38	91.1627
658.50	90.7723
658.62	91.0426
658.75	91.0796
658.87	91.2897
658.99	91.3269
659.11	91.3754
659.23	91.4105
659.36	91.4430
659.48	91.1741
659.60	91.1850
659.72	91.4419
659.84	91.3811
659.97	90.9372
660.09	90.7069
660.21	90.8390
660.33	91.0657
660.45	90.9230
660.58	91.0870
660.70	91.4180
660.82	91.1276
660.94	90.7018
661.06	90.6515
661.19	90.9791
661.31	90.8751
661.43	90.8045
661.55	90.8293
661.67	91.0989
661.80	90.9590
661.92	90.8826
662.04	90.9192
662.16	91.2316
662.28	91.1299
662.40	91.0958
662.53	91.2836
662.65	91.2650
662.77	91.3407
662.89	91.5206
663.01	91.5929
663.14	91.3545
663.26	91.6263
663.38	91.3304
663.50	90.8337
663.62	90.7568
663.74	90.8651
663.87	90.6000
663.99	90.2790
664.11	90.6381
664.23	90.8779
664.35	90.7608
664.48	90.9928
664.60	91.5815
664.72	91.6106
664.84	91.3093
664.96	91.4526
665.08	91.2763
665.21	91.3629
665.33	91.1998
665.45	91.1696
665.57	91.1519
665.69	91.2732
665.81	91.1190
665.94	91.0124
666.06	91.0601
666.18	91.2410
666.30	91.0188
666.42	90.7947
666.54	91.0256
666.67	90.9156
666.79	90.6758
666.91	90.9289
667.03	90.9960
667.15	90.9445
667.27	91.1976
667.40	90.8945
667.52	90.7263
667.64	90.9352
667.76	90.7028
667.88	90.4139
668.00	90.6191
668.13	90.6953
668.25	90.5607
668.37	90.5434
668.49	90.8923
668.61	91.0718
668.73	90.9959
668.85	90.8561
668.98	91.2003
669.10	90.9954
669.22	90.6250
669.34	90.7814
669.46	90.7362
669.58	90.4281
669.71	90.6053
669.83	90.8165
669.95	90.6912
670.07	90.7377
670.19	91.0139
670.31	90.9417
670.43	90.8058
670.56	90.7461
670.68	90.9467
670.80	90.4813
670.92	90.3989
671.04	90.6440
671.16	90.7249
671.28	90.3351
671.41	90.6610
671.53	90.9112
671.65	90.4731
671.77	90.2367
671.89	90.5799
672.01	90.8670
672.13	90.5930
672.26	91.0958
672.38	91.1219
672.50	90.8852
672.62	90.4604
672.74	90.5622
672.86	90.4067
672.98	90.6283
673.11	90.5368
673.23	90.7421
673.35	90.7214
673.47	90.9621
673.59	90.7846
673.71	90.5760
673.83	90.4801
673.96	90.6318
674.08	90.2580
674.20	90.2811
674.32	90.6903
674.44	90.7416
674.56	90.3797
674.68	90.3611
674.80	90.5574
674.93	90.5390
675.05	90.3270
675.17	90.3320
675.29	90.4518
675.41	90.2983
675.53	90.3030
675.65	90.2557
675.77	90.4378
675.90	90.6072
676.02	90.3192
676.14	89.9768
676.26	90.1944
676.38	90.1169
676.50	90.0448
676.62	90.5577
676.74	90.7745
676.87	90.4757
676.99	90.3134
677.11	90.1150
677.23	89.7604
677.35	89.8646
677.47	90.0104
677.59	89.9434
677.71	89.9302
677.83	89.8317
677.96	89.7645
678.08	89.8814
678.20	90.1133
678.32	90.1729
678.44	89.9416
678.56	89.7990
678.68	89.8534
678.80	89.7660
678.93	89.6439
679.05	89.7811
679.17	89.9384
679.29	89.8512
679.41	89.8609
679.53	89.8388
679.65	89.9843
679.77	89.8274
679.89	89.4681
680.01	89.6552
680.14	89.8540
680.26	89.7264
680.38	89.6663
680.50	89.8946
680.62	89.6755
680.74	89.5810
680.86	89.7446
680.98	89.4875
681.10	89.5716
681.22	89.7605
681.35	89.9316
681.47	89.4348
681.59	89.8466
681.71	89.8932
681.83	89.4634
681.95	88.9456
682.07	89.3571
682.19	89.3161
682.31	88.8516
682.43	89.0974
682.56	89.3352
682.68	89.2827
682.80	89.0657
682.92	89.3812
683.04	89.4353
683.16	89.2241
683.28	89.2096
683.40	89.2363
683.52	89.2277
683.64	89.1510
683.76	89.3944
683.89	89.2722
684.01	89.3425
684.13	89.3051
684.25	89.1320
684.37	89.1257
684.49	89.0515
684.61	89.1069
684.73	89.2655
684.85	89.0943
684.97	89.1556
685.09	89.5987
685.21	89.2898
685.34	89.2305
685.46	89.5162
685.58	89.2277
685.70	89.2093
685.82	89.5369
685.94	89.4809
686.06	89.4628
686.18	89.6655
686.30	89.4107
686.42	89.5135
686.54	89.2213
686.66	89.2580
686.79	88.9812
686.91	88.9969
687.03	89.0776
687.15	89.4564
687.27	89.2095
687.39	89.4828
687.51	89.5309
687.63	89.2371
687.75	88.7829
687.87	89.1318
687.99	88.9963
688.11	88.7232
688.23	88.8052
688.35	89.1957
688.48	89.1244
688.60	89.1314
688.72	89.4132
688.84	89.5537
688.96	89.6740
689.08	89.1837
689.20	89.2073
689.32	89.3528
689.44	89.4108
689.56	89.1556
689.68	89.5446
689.80	89.5822
689.92	89.4150
690.04	89.2125
690.16	89.2093
690.28	89.5424
690.41	89.5093
690.53	89.2704
690.65	89.1649
690.77	89.2669
690.89	89.0459
691.01	89.2171
691.13	89.3824
691.25	89.6031
691.37	89.8626
691.49	89.4550
691.61	89.3028
691.73	89.6477
691.85	89.7789
691.97	89.3365
692.09	89.6880
692.21	89.6649
692.33	89.7078
692.45	89.5448
692.57	89.5201
692.70	89.7682
692.82	89.9320
692.94	89.6482
693.06	89.7505
693.18	90.1437
693.30	89.7347
693.42	89.7145
693.54	89.8740
693.66	90.0667
693.78	89.9025
693.90	90.2086
694.02	90.4056
694.14	90.3069
694.26	89.8219
694.38	89.7508
694.50	89.8057
694.62	89.7344
694.74	89.6799
694.86	89.8673
694.98	89.8013
695.10	89.8349
695.22	89.7360
695.34	89.8534
695.46	89.8687
695.58	90.1177
695.71	90.0771
695.83	89.8175
695.95	89.9752
696.07	90.1718
696.19	90.3209
696.31	90.0908
696.43	90.4179
696.55	90.4652
696.67	90.4502
696.79	90.3933
696.91	90.2554
697.03	90.2740
697.15	90.2961
697.27	89.9556
697.39	89.9174
697.51	90.2529
697.63	89.9027
697.75	89.7460
697.87	90.1165
697.99	90.0091
698.11	89.9734
698.23	90.2828
698.35	90.2649
698.47	90.4055
698.59	90.2615
698.71	90.4792
698.83	90.6157
698.95	90.7011
699.07	90.4578
699.19	90.7894
699.31	90.5748
699.43	90.6389
699.55	90.6975
699.67	90.8593
699.79	90.8323
699.91	90.9113
700.03	90.7603
700.15	90.6337
700.27	90.7380
700.39	90.5950
700.51	90.6166
700.63	90.5224
700.75	90.7522
700.87	90.5386
700.99	90.8641
701.11	90.8550
701.24	90.7405
701.36	90.5216
701.48	90.7020
701.60	90.2095
701.72	90.2740
701.84	90.6906
701.96	90.6145
702.08	90.3238
702.20	90.6732
702.32	90.8255
702.44	90.8944
702.56	91.1384
702.68	91.0652
702.80	91.0152
702.92	91.0145
703.04	90.9629
703.16	91.2012
703.28	91.5579
703.40	91.5957
703.52	91.4556
703.64	91.3133
703.76	91.0591
703.88	91.0249
704.00	90.8748
704.12	90.9584
704.24	90.9656
704.36	91.1273
704.48	91.0266
704.60	91.2392
704.72	90.9450
704.84	90.9641
704.96	91.0007
705.07	91.2043
705.19	91.0605
705.31	91.4836
705.43	91.4474
705.55	91.3299
705.67	91.4840
705.79	91.7166
705.91	91.4669
706.03	91.4312
706.15	91.4690
706.27	91.1351
706.39	91.1269
706.51	91.2688
706.63	91.3551
706.75	91.1804
706.87	91.3342
706.99	91.5225
707.11	91.5556
707.23	91.5997
707.35	91.6166
707.47	91.5004
707.59	91.3993
707.71	91.3575
707.83	91.4841
707.95	91.2946
708.07	91.3504
708.19	91.6145
708.31	91.6241
708.43	91.4642
708.55	91.8322
708.67	91.8236
708.79	91.4929
708.91	91.3852
709.03	91.5613
709.15	91.4547
709.27	91.4578
709.39	91.3201
709.51	91.3485
709.63	91.5047
709.75	91.4438
709.87	91.5080
709.99	91.7393
710.11	92.0600
710.23	91.5325
710.35	91.5869
710.47	91.5937
710.58	91.3684
710.70	91.1550
710.82	91.4681
710.94	91.4871
711.06	91.6206
711.18	91.5327
711.30	91.4598
711.42	91.4761
711.54	91.8503
711.66	91.7269
711.78	91.7121
711.90	92.0251
712.02	92.3371
712.14	91.8237
712.26	91.5654
712.38	91.9147
712.50	91.8151
712.62	91.5532
712.74	91.3505
712.86	91.6943
712.98	91.6318
713.10	91.2990
713.22	91.1048
713.34	91.4216
713.45	91.3765
713.57	91.2725
713.69	91.4698
713.81	91.8117
713.93	92.3221
714.05	92.1132
714.17	92.0176
714.29	92.2971
714.41	92.1373
714.53	91.8055
714.65	92.2254
714.77	92.0649
714.89	91.8626
715.01	91.8716
715.13	91.7946
715.25	91.7041
715.37	91.8760
715.49	91.8401
715.61	91.6335
715.72	91.8075
715.84	91.8323
715.96	91.8211
716.08	91.7552
716.20	92.0130
716.32	91.9141
716.44	91.7993
716.56	91.7054
716.68	91.8147
716.80	92.0003
716.92	92.1292
717.04	92.2422
717.16	92.7191
717.28	92.6326
717.40	92.4109
717.52	92.3226
717.63	92.2544
717.75	92.1661
717.87	92.3857
717.99	92.1855
718.11	92.0032
718.23	91.8509
718.35	91.9587
718.47	91.7975
718.59	92.0386
718.71	92.0668
718.83	92.4917
718.95	92.3140
719.07	92.4002
719.19	92.4006
719.30	92.5007
719.42	92.2131
719.54	92.1877
719.66	92.3842
719.78	92.3748
719.90	92.5192
720.02	92.4830
720.14	92.5417
720.26	92.3546
720.38	92.6178
720.50	92.3482
720.62	92.6738
720.74	92.6021
720.85	92.3011
720.97	92.2301
721.09	92.3197
721.21	92.0915
721.33	92.2539
721.45	92.5440
721.57	92.7951
721.69	92.6480
721.81	92.4265
721.93	92.5497
722.05	92.8043
722.16	92.4704
722.28	92.4972
722.40	92.4606
722.52	92.5811
722.64	92.3477
722.76	92.2226
722.88	92.6669
723.00	92.9688
723.12	93.1070
723.24	92.9197
723.36	92.8997
723.47	92.7265
723.59	92.5676
723.71	92.3210
723.83	92.5866
723.95	92.5639
724.07	92.2135
724.19	92.5501
724.31	92.7662
724.43	92.8991
724.55	92.4689
724.66	92.9903
724.78	93.0116
724.90	92.6514
725.02	92.3737
725.14	93.2418
725.26	93.0457
725.38	92.7280
725.50	92.6622
725.62	92.9515
725.74	93.1435
725.85	93.3796
725.97	92.3025
726.09	92.7387
726.21	92.9594
726.33	92.7317
726.45	92.5954
726.57	93.8831
726.69	93.4546
726.81	93.0490
726.92	92.7620
727.04	92.7355
727.16	92.7206
727.28	92.9251
727.40	92.5301
727.52	92.3909
727.64	92.3623
727.76	92.5164
727.88	92.4716
727.99	92.8461
728.11	93.1220
728.23	93.2078
728.35	92.9845
728.47	92.8425
728.59	93.0665
728.71	93.0641
728.83	92.8661
728.94	92.8059
729.06	92.9777
729.18	92.8936
729.30	92.7058
729.42	92.7016
729.54	92.9330
729.66	92.7572
729.78	92.6260
729.90	93.0459
730.01	93.1332
730.13	93.1459
730.25	93.1561
730.37	93.2952
730.49	93.0875
730.61	93.1376
730.73	93.1512
730.84	93.2639
730.96	93.4800
731.08	93.6440
731.20	93.0935
731.32	93.1189
731.44	93.1978
731.56	92.7718
731.68	92.5932
731.79	93.2832
731.91	93.0699
732.03	93.1118
732.15	93.3539
732.27	93.2081
732.39	93.3265
732.51	93.6655
732.62	93.3347
732.74	93.3543
732.86	93.6603
732.98	93.4097
733.10	92.8524
733.22	93.3462
733.34	93.1819
733.45	93.0584
733.57	93.0362
733.69	93.3923
733.81	93.2482
733.93	93.2955
734.05	93.2921
734.17	93.4195
734.28	93.6850
734.40	93.7195
734.52	93.4217
734.64	93.4866
734.76	93.7020
734.88	93.3731
735.00	92.8708
735.11	93.3731
735.23	93.6154
735.35	93.1522
735.47	93.2770
735.59	93.7574
735.71	93.5215
735.83	93.1961
735.94	93.3705
736.06	93.2651
736.18	93.2144
736.30	93.6327
736.42	93.7818
736.54	93.2667
736.65	93.4304
736.77	93.5781
736.89	92.7689
737.01	93.0682
737.13	93.7936
737.25	93.6387
737.36	93.4534
737.48	94.1109
737.60	93.7539
737.72	93.3596
737.84	93.5590
737.96	93.5007
738.08	93.6876
738.19	93.6764
738.31	94.0322
738.43	93.8528
738.55	94.1358
738.67	93.8882
738.79	93.8084
738.90	93.9626
739.02	94.2160
739.14	93.9449
739.26	93.7735
739.38	94.1446
739.50	94.0460
739.61	93.9580
739.73	94.0494
739.85	94.0169
739.97	94.2415
740.09	94.2168
740.20	94.1127
740.32	94.5313
740.44	94.8355
740.56	94.4986
740.68	94.5161
740.80	94.4037
740.91	94.0216
741.03	94.0926
741.15	93.8526
741.27	93.7662
741.39	93.6970
741.51	93.7852
741.62	93.6854
741.74	93.8918
741.86	93.9422
741.98	94.1819
742.10	94.1116
742.21	94.2197
742.33	93.8253
742.45	93.8087
742.57	93.6457
742.69	93.7606
742.80	93.6629
742.92	94.1046
743.04	93.7961
743.16	94.2133
743.28	94.2420
743.40	94.4173
743.51	94.3887
743.63	94.7601
743.75	94.4894
743.87	94.3359
743.99	94.0871
744.10	94.1653
744.22	93.9543
744.34	93.7865
744.46	94.0757
744.58	93.8615
744.69	93.7521
744.81	94.2323
744.93	94.1948
745.05	93.7590
745.17	94.1662
745.28	94.2843
745.40	94.1241
745.52	94.3640
745.64	94.8267
745.76	95.0214
745.87	94.7634
745.99	94.8210
746.11	94.9501
746.23	94.9900
746.35	94.2054
746.46	94.2562
746.58	94.0497
746.70	93.9516
746.82	93.8880
746.94	94.5524
747.05	94.8065
747.17	95.0437
747.29	94.5354
747.41	94.7195
747.53	94.6550
747.64	94.3459
747.76	93.9335
747.88	94.5180
748.00	94.4329
748.12	94.5048
748.23	94.6205
748.35	94.8330
748.47	95.0159
748.59	95.0290
748.70	95.0250
748.82	95.2102
748.94	95.2215
749.06	95.2642
749.18	94.9746
749.29	94.9316
749.41	94.9929
749.53	94.9609
749.65	94.9964
749.76	95.2605
749.88	95.0506
750.00	94.7634
750.12	94.8804
750.24	94.8259
750.35	94.4045
750.47	94.6314
750.59	94.5675
750.71	94.9310
750.82	94.9373
750.94	95.2759
751.06	95.2862
751.18	95.5294
751.30	95.0637
751.41	94.9999
751.53	95.1017
751.65	94.8607
751.77	94.7130
751.88	95.1662
752.00	94.8104
752.12	94.7189
752.24	94.9531
752.35	95.0332
752.47	94.5724
752.59	95.2047
752.71	94.9412
752.83	95.2186
752.94	95.2735
753.06	95.4538
753.18	95.2209
753.30	95.5255
753.41	95.1991
753.53	95.1857
753.65	95.4112
753.77	95.3663
753.88	95.1733
754.00	94.9681
754.12	95.2108
754.24	95.5362
754.35	95.3142
754.47	95.3784
754.59	95.7766
754.71	95.7728
754.82	95.0662
754.94	95.3038
755.06	95.3411
755.18	95.3409
755.29	95.0220
755.41	95.2794
755.53	95.3098
755.65	95.3852
755.76	94.9024
755.88	95.0576
756.00	95.3628
756.12	95.3357
756.23	94.8953
756.35	95.3199
756.47	95.6630
756.59	95.3493
756.70	95.5189
756.82	95.8081
756.94	95.6742
757.06	95.4324
757.17	95.6365
757.29	95.2518
757.41	95.3504
757.53	95.3671
757.64	95.1564
757.76	94.8765
757.88	95.0791
758.00	95.4423
758.11	95.4380
758.23	95.6087
758.35	95.5660
758.47	95.6135
758.58	95.3041
758.70	95.6095
758.82	95.4839
758.94	95.9071
759.05	96.0766
759.17	95.8240
759.29	95.6762
759.40	95.9219
759.52	95.5239
759.64	95.1629
759.76	95.4875
759.87	95.5690
759.99	95.7952
760.11	95.9827
760.23	96.1201
760.34	96.1562
760.46	96.0860
760.58	95.5830
760.70	95.4894
760.81	95.5296
760.93	95.5599
761.05	95.8437
761.16	96.1767
761.28	96.4756
761.40	96.1295
761.52	95.9158
761.63	95.6581
761.75	95.6194
761.87	95.3574
761.98	95.7649
762.10	95.8036
762.22	96.1235
762.34	95.9284
762.45	95.3769
762.57	95.5496
762.69	95.5434
762.81	95.5662
762.92	95.6014
763.04	95.8275
763.16	95.7236
763.27	95.7551
763.39	95.2109
763.51	95.3276
763.63	95.9758
763.74	95.9248
763.86	96.0831
763.98	96.0901
764.09	96.2790
764.21	96.0123
764.33	96.0139
764.44	95.8835
764.56	96.0894
764.68	96.1047
764.80	95.6276
764.91	95.6968
765.03	95.8538
765.15	96.0796
765.26	95.6359
765.38	96.1259
765.50	96.0171
765.62	95.8593
765.73	95.8662
765.85	96.0173
765.97	96.2108
766.08	96.4286
766.20	96.4625
766.32	96.0586
766.43	96.1539
766.55	95.9803
766.67	95.8806
766.79	96.0525
766.90	96.4018
767.02	96.6732
767.14	95.9580
767.25	95.9185
767.37	95.9287
767.49	95.5473
767.60	95.1233
767.72	95.9427
767.84	96.1989
767.95	96.0478
768.07	96.2628
768.19	96.5193
768.31	96.4825
768.42	96.2086
768.54	95.8656
768.66	95.7401
768.77	95.8461
768.89	95.7552
769.01	95.5832
769.12	95.9666
769.24	96.2310
769.36	96.1947
769.47	95.9149
769.59	95.9830
769.71	95.9470
769.82	96.0809
769.94	95.7558
770.06	96.1661
770.17	96.1978
770.29	95.9499
770.41	95.9151
770.53	96.1257
770.64	95.8768
770.76	95.8060
770.88	96.5001
770.99	96.4082
771.11	96.5486
771.23	96.4621
771.34	96.4533
771.46	96.1633
771.58	96.0936
771.69	95.8190
771.81	96.3215
771.93	96.0871
772.04	95.9928
772.16	95.8332
772.28	96.0014
772.39	95.5260
772.51	96.0889
772.63	96.1820
772.74	95.6914
772.86	95.9174
772.98	96.2390
773.09	96.0151
773.21	95.8629
773.33	96.6791
773.44	96.2371
773.56	95.8600
773.68	96.1378
773.79	96.3114
773.91	96.3186
774.03	96.2385
774.14	96.7085
774.26	96.9164
774.38	96.7102
774.49	96.3200
774.61	96.5817
774.73	96.3534
774.84	95.7808
774.96	95.9517
775.08	96.0541
775.19	95.9179
775.31	96.0240
775.43	96.4183
775.54	95.9766
775.66	96.4296
775.77	96.3579
775.89	96.1022
776.01	95.8848
776.12	96.6316
776.24	96.4839
776.36	96.4087
776.47	96.3544
776.59	96.6213
776.71	96.5072
776.82	96.3932
776.94	96.4570
777.06	96.9789
777.17	97.1143
777.29	96.8076
777.41	96.8256
777.52	96.8142
777.64	97.0248
777.75	96.9075
777.87	96.7780
777.99	96.6919
778.10	97.0421
778.22	96.7930
778.34	96.4725
778.45	96.6894
778.57	96.7667
778.69	96.1698
778.80	96.0440
778.92	96.2851
779.04	96.2331
779.15	95.9877
779.27	96.2023
779.38	96.3869
779.50	96.3043
779.62	96.7537
779.73	96.3832
779.85	96.8117
779.97	96.9587
780.08	96.7102
780.20	96.2679
780.31	96.9357
780.43	96.9744
780.55	96.3453
780.66	95.9798
780.78	96.3650
780.90	96.5400
781.01	96.4791
781.13	96.3667
781.25	97.1744
781.36	97.0255
781.48	96.3779
781.59	96.1789
781.71	96.9168
781.83	97.1732
781.94	96.5984
782.06	97.0349
782.18	97.7620
782.29	97.1995
782.41	96.6231
782.52	97.2040
782.64	97.4337
782.76	97.5221
782.87	97.3031
782.99	96.7200
783.10	96.8652
783.22	96.6352
783.34	95.7982
783.45	96.2790
783.57	96.6359
783.69	95.9014
783.80	95.6596
783.92	95.8786
784.03	95.6951
784.15	95.9909
784.27	96.3867
784.38	96.4484
784.50	96.5454
784.61	96.8378
784.73	97.1414
784.85	96.9129
784.96	97.0024
785.08	96.9842
785.19	97.2276
785.31	97.1769
785.43	97.1087
785.54	97.0541
785.66	96.7031
785.77	96.7494
785.89	96.5024
786.01	96.7946
786.12	96.5508
786.24	96.7403
786.35	96.4317
786.47	96.7720
786.59	96.7367
786.70	97.2137
786.82	97.1951
786.93	97.1038
787.05	96.8844
787.17	97.1641
787.28	96.8480
787.40	96.7705
787.51	97.1624
787.63	96.8518
787.75	96.3394
787.86	96.6014
787.98	96.7976
788.09	96.1677
788.21	96.3428
788.33	97.1320
788.44	96.9321
788.56	97.2256
788.67	97.3956
788.79	97.6679
788.91	97.5834
789.02	97.1939
789.14	96.6849
789.25	96.9329
789.37	96.6525
789.48	96.5199
789.60	96.7915
789.72	96.6204
789.83	96.9226
789.95	97.3935
790.06	96.8423
790.18	96.8933
790.30	97.0763
790.41	96.5879
790.53	96.3140
790.64	96.4972
790.76	96.6452
790.87	96.5345
790.99	96.5511
791.11	96.5416
791.22	96.3977
791.34	96.3450
791.45	96.7262
791.57	96.9791
791.68	96.3869
791.80	96.5142
791.92	96.8096
792.03	96.7878
792.15	96.6319
792.26	96.8971
792.38	96.8914
792.49	96.7976
792.61	96.9150
792.73	97.4231
792.84	99.2920
792.96	94.5624
793.07	95.1015
793.19	96.0402
793.30	96.2751
793.42	95.2499
793.54	99.1459
793.65	98.8193
793.77	98.1793
793.88	97.3462
794.00	96.8646
794.11	97.5375
794.23	97.6399
794.34	97.7239
794.46	96.8918
794.58	96.3703
794.69	97.3606
794.81	97.6045
794.92	96.2355
795.04	96.7859
795.15	97.1549
795.27	96.9508
795.39	96.6109
795.50	97.5862
795.62	97.9423
795.73	97.8671
795.85	96.9313
795.96	96.9381
796.08	96.8431
796.19	96.9554
796.31	96.9878
796.42	97.0016
796.54	97.0394
796.66	97.4706
796.77	96.6675
796.89	97.2274
797.00	97.9015
797.12	97.3565
797.23	96.6990
797.35	97.1636
797.46	96.5236
797.58	96.5504
797.69	96.8768
797.81	97.2461
797.93	97.5227
798.04	97.2980
798.16	97.3732
798.27	97.4365
798.39	97.4624
798.50	97.5423
798.62	97.2211
798.73	97.1284
798.85	97.0354
798.96	96.4632
799.08	96.1845
799.19	97.0218
799.31	97.3890
799.43	97.3512
799.54	97.2153
799.66	97.4793
799.77	98.0238
799.89	97.5254
800.00	96.9063
800.12	96.7808
800.23	97.0628
800.35	96.7341
800.46	96.2888
800.58	96.7789
800.69	97.4901
800.81	96.6605
800.92	96.6726
801.04	97.4901
801.16	97.7492
801.27	97.6276
801.39	98.0931
801.50	97.3817
801.62	96.7312
801.73	97.0803
801.85	96.8726
801.96	96.3820
802.08	97.3619
802.19	97.8100
802.31	96.8261
802.42	96.8972
802.54	97.7814
802.65	96.9169
802.77	97.4247
802.88	97.2932
803.00	97.7345
803.11	97.5536
803.23	97.7338
803.34	97.4503
803.46	97.7146
803.57	97.8652
803.69	97.3340
803.80	97.7460
803.92	97.5456
804.03	97.6805
804.15	97.1488
804.26	97.8492
804.38	97.3843
804.50	96.9717
804.61	97.1127
804.73	97.9039
804.84	97.6208
804.96	97.9656
805.07	98.1526
805.19	97.9480
805.30	97.4169
805.42	97.2319
805.53	97.2254
805.65	97.5010
805.76	97.5074
805.88	97.0600
805.99	97.1520
806.11	96.8130
806.22	96.4984
806.34	96.7227
806.45	96.5178
806.57	96.7653
806.68	96.5856
806.80	96.3316
806.91	96.6426
807.03	97.2950
807.14	97.1784
807.26	97.1393
807.37	97.9260
807.49	97.3575
807.60	96.6926
807.72	96.8323
807.83	97.4345
807.95	97.0272
808.06	96.9968
808.17	97.7938
808.29	97.4051
808.40	96.8852
808.52	96.5350
808.63	97.0116
808.75	96.4612
808.86	96.5711
808.98	96.5784
809.09	96.9606
809.21	96.5438
809.32	97.4571
809.44	97.2002
809.55	97.8133
809.67	97.3664
809.78	96.9678
809.90	96.5780
810.01	96.0360
810.13	96.0407
810.24	96.7466
810.36	97.4183
810.47	96.7790
810.59	96.7751
810.70	96.7486
810.82	96.6391
810.93	96.7523
811.05	97.3698
811.16	97.8575
811.27	96.6930
811.39	96.9531
811.50	97.7815
811.62	97.2575
811.73	97.2532
811.85	97.9637
811.96	97.6416
812.08	96.9968
812.19	97.5315
812.31	98.3964
812.42	98.4608
812.54	97.8675
812.65	97.5048
812.77	97.2167
812.88	96.6039
813.00	97.4092
813.11	98.2020
813.22	98.7740
813.34	98.0371
813.45	97.3114
813.57	97.2066
813.68	97.9184
813.80	98.1490
813.91	97.8881
814.03	99.1381
814.14	98.5221
814.26	97.3650
814.37	97.1905
814.49	98.3235
814.60	97.4268
814.71	97.8075
814.83	97.8568
814.94	97.0320
815.06	97.6357
815.17	99.1288
815.29	97.6252
815.40	98.1184
815.52	99.2187
815.63	98.3184
815.75	98.1682
815.86	99.3266
815.97	98.5098
816.09	97.4887
816.20	99.1127
816.32	98.1519
816.43	98.6386
816.55	97.6368
816.66	98.4620
816.78	97.4376
816.89	98.2334
817.00	98.5951
817.12	99.3139
817.23	99.0102
817.35	100.0416
817.46	98.1602
817.58	98.1258
817.69	99.0485
817.81	98.8518
817.92	97.4919
818.03	99.6034
818.15	99.5451
818.26	99.2541
818.38	104.0877
818.49	110.8059
818.61	91.4671
818.72	93.4748
818.83	101.1846
818.95	97.8772
819.06	90.2906
819.18	110.7687
819.29	108.0611
819.41	100.0262
819.52	98.6738
819.64	100.5318
819.75	100.2059
819.86	98.4896
819.98	98.6504
820.09	99.4484
820.21	97.1234
820.32	95.0959
820.44	98.3063
820.55	98.3378
820.66	97.7599
820.78	98.5828
820.89	100.8585
821.01	99.0591
821.12	100.8556
821.23	98.1865
821.35	97.9501
821.46	99.4733
821.58	100.8294
821.69	97.4370
821.81	98.8940
821.92	97.8762
822.03	98.0398
822.15	98.0118
822.26	98.6080
822.38	99.3381
822.49	100.8799
822.61	98.4364
822.72	97.9060
822.83	101.1266
822.95	100.0300
823.06	98.0768
823.18	98.4608
823.29	99.5784
823.40	101.9807
823.52	98.1670
823.63	100.6643
823.75	105.2276
823.86	100.6333
823.97	98.7677
824.09	103.9748
824.20	105.3262
824.32	101.3099
824.43	100.3747
824.55	101.2297
824.66	103.4254
824.77	99.3749
824.89	100.5241
825.00	103.3780
825.12	102.2333
825.23	103.0674
825.34	100.9612
825.46	100.0303
825.57	106.4390
825.69	104.0461
825.80	103.9881
825.91	105.7054
826.03	108.7777
826.14	102.6501
826.26	103.4688
826.37	100.2941
826.48	109.4071
826.60	105.7251
826.71	106.2533
826.83	97.7462
826.94	94.5882
827.05	92.2130
827.17	93.7665
827.28	97.6012
827.39	103.0032
827.51	106.3432
827.62	104.2050
827.74	111.0227
827.85	109.7769
827.96	93.9336
828.08	106.7360
828.19	140.7856
828.31	123.7826
828.42	111.8218
828.53	127.8258
828.65	36.9272
828.76	0.0000
828.87	0.0000
828.99	0.0000
